Time_s,Voltage_mV
0.001000,-0.127860
0.002000,-0.130455
0.003000,-0.132726
0.004000,-0.134673
0.005000,-0.132726
0.006000,-0.123642
0.007000,-0.111314
0.008000,-0.103203
0.009000,-0.099310
0.010000,-0.096714
0.011000,-0.096065
0.012000,-0.100607
0.013000,-0.104501
0.014000,-0.102878
0.015000,-0.101905
0.016000,-0.101905
0.017000,-0.095741
0.018000,-0.092172
0.019000,-0.095092
0.020000,-0.094119
0.021000,-0.092497
0.022000,-0.093470
0.023000,-0.096065
0.024000,-0.088928
0.025000,-0.081791
0.026000,-0.084386
0.027000,-0.089577
0.028000,-0.083088
0.029000,-0.074978
0.030000,-0.076275
0.031000,-0.082115
0.032000,-0.098661
0.033000,-0.104825
0.034000,-0.102878
0.035000,-0.102878
0.036000,-0.114558
0.037000,-0.129806
0.038000,-0.138890
0.039000,-0.133375
0.040000,-0.125913
0.041000,-0.124291
0.042000,-0.130779
0.043000,-0.138566
0.044000,-0.139539
0.045000,-0.138566
0.046000,-0.135646
0.047000,-0.133050
0.048000,-0.132402
0.049000,-0.130455
0.050000,-0.129157
0.051000,-0.131104
0.052000,-0.137592
0.053000,-0.141810
0.054000,-0.136944
0.055000,-0.133050
0.056000,-0.141486
0.057000,-0.150245
0.058000,-0.153489
0.059000,-0.148623
0.060000,-0.136944
0.061000,-0.122020
0.062000,-0.106123
0.063000,-0.094768
0.064000,-0.089577
0.065000,-0.088279
0.066000,-0.088279
0.067000,-0.094119
0.068000,-0.092821
0.069000,-0.091199
0.070000,-0.093146
0.071000,-0.091848
0.072000,-0.090875
0.073000,-0.084062
0.074000,-0.081791
0.075000,-0.075302
0.076000,-0.064596
0.077000,-0.045130
0.078000,-0.015931
0.079000,0.016187
0.080000,0.060310
0.081000,0.087562
0.082000,0.108325
0.083000,0.124871
0.084000,0.127791
0.085000,0.123249
0.086000,0.120005
0.087000,0.117085
0.088000,0.110921
0.089000,0.095672
0.090000,0.086588
0.091000,0.080100
0.092000,0.068745
0.093000,0.059985
0.094000,0.050252
0.095000,0.032733
0.096000,0.002237
0.097000,-0.027611
0.098000,-0.051943
0.099000,-0.071409
0.100000,-0.086657
0.101000,-0.102230
0.102000,-0.112287
0.103000,-0.111638
0.104000,-0.111638
0.105000,-0.123966
0.106000,-0.130455
0.107000,-0.134024
0.108000,-0.135970
0.109000,-0.144730
0.110000,-0.166142
0.111000,-0.187879
0.112000,-0.200207
0.113000,-0.206696
0.114000,-0.210265
0.115000,-0.209616
0.116000,-0.202803
0.117000,-0.194692
0.118000,-0.197287
0.119000,-0.196963
0.120000,-0.193070
0.121000,-0.192745
0.122000,-0.199883
0.123000,-0.211887
0.124000,-0.224215
0.125000,-0.235570
0.126000,-0.235246
0.127000,-0.229082
0.128000,-0.225837
0.129000,-0.230055
0.130000,-0.234272
0.131000,-0.238814
0.132000,-0.238166
0.133000,-0.242059
0.134000,-0.246601
0.135000,-0.249196
0.136000,-0.239139
0.137000,-0.226162
0.138000,-0.214807
0.139000,-0.216104
0.140000,-0.219673
0.141000,-0.223242
0.142000,-0.224540
0.143000,-0.224540
0.144000,-0.229406
0.145000,-0.224540
0.146000,-0.216753
0.147000,-0.210913
0.148000,-0.209616
0.149000,-0.201181
0.150000,-0.190799
0.151000,-0.190474
0.152000,-0.181715
0.153000,-0.184635
0.154000,-0.188528
0.155000,-0.186906
0.156000,-0.186906
0.157000,-0.192097
0.158000,-0.194368
0.159000,-0.187879
0.160000,-0.175875
0.161000,-0.167764
0.162000,-0.169387
0.163000,-0.190150
0.164000,-0.234597
0.165000,-0.298509
0.166000,-0.373128
0.167000,-0.487003
0.168000,-0.657004
0.169000,-0.856528
0.170000,-1.057349
0.171000,-1.242274
0.172000,-1.376587
0.173000,-1.442122
0.174000,-1.440824
0.175000,-1.353553
0.176000,-1.197178
0.177000,-0.966834
0.178000,-0.658950
0.179000,-0.267364
0.180000,0.196570
0.181000,0.673482
0.182000,1.152990
0.183000,1.617899
0.184000,2.011758
0.185000,2.369930
0.186000,2.664513
0.187000,2.855604
0.188000,2.974994
0.189000,2.998678
0.190000,2.877016
0.191000,2.625257
0.192000,2.289471
0.193000,1.917673
0.194000,1.539062
0.195000,1.176998
0.196000,0.829533
0.197000,0.538195
0.198000,0.316609
0.199000,0.160234
0.200000,0.081073
0.201000,0.052848
0.202000,0.044737
0.203000,0.049279
0.204000,0.049603
0.205000,0.039546
0.206000,0.020080
0.207000,-0.001656
0.208000,-0.024042
0.209000,-0.050970
0.210000,-0.072707
0.211000,-0.100283
0.212000,-0.129806
0.213000,-0.166791
0.214000,-0.196639
0.215000,-0.211562
0.216000,-0.226486
0.217000,-0.238490
0.218000,-0.258280
0.219000,-0.273853
0.220000,-0.286506
0.221000,-0.306620
0.222000,-0.332575
0.223000,-0.360151
0.224000,-0.371830
0.225000,-0.377021
0.226000,-0.372155
0.227000,-0.363071
0.228000,-0.363720
0.229000,-0.379617
0.230000,-0.399731
0.231000,-0.413357
0.232000,-0.430877
0.233000,-0.445152
0.234000,-0.456182
0.235000,-0.467862
0.236000,-0.473701
0.237000,-0.470133
0.238000,-0.467537
0.239000,-0.474675
0.240000,-0.484083
0.241000,-0.486030
0.242000,-0.477594
0.243000,-0.477594
0.244000,-0.480190
0.245000,-0.477919
0.246000,-0.479541
0.247000,-0.487327
0.248000,-0.492194
0.249000,-0.492194
0.250000,-0.488625
0.251000,-0.481488
0.252000,-0.478243
0.253000,-0.480514
0.254000,-0.486030
0.255000,-0.486678
0.256000,-0.488949
0.257000,-0.497060
0.258000,-0.502575
0.259000,-0.497385
0.260000,-0.489274
0.261000,-0.483110
0.262000,-0.482461
0.263000,-0.485381
0.264000,-0.492843
0.265000,-0.503549
0.266000,-0.513282
0.267000,-0.517824
0.268000,-0.517824
0.269000,-0.523339
0.270000,-0.526908
0.271000,-0.523339
0.272000,-0.525286
0.273000,-0.531450
0.274000,-0.529179
0.275000,-0.531774
0.276000,-0.543129
0.277000,-0.549618
0.278000,-0.558377
0.279000,-0.564541
0.280000,-0.567786
0.281000,-0.565839
0.282000,-0.569408
0.283000,-0.574274
0.284000,-0.577519
0.285000,-0.588225
0.286000,-0.602175
0.287000,-0.615477
0.288000,-0.620668
0.289000,-0.621317
0.290000,-0.632672
0.291000,-0.637538
0.292000,-0.646298
0.293000,-0.651489
0.294000,-0.644351
0.295000,-0.638511
0.296000,-0.638187
0.297000,-0.651489
0.298000,-0.665439
0.299000,-0.679389
0.300000,-0.701126
0.301000,-0.722214
0.302000,-0.715401
0.303000,-0.700153
0.304000,-0.691718
0.305000,-0.701451
0.306000,-0.715725
0.307000,-0.725458
0.308000,-0.734542
0.309000,-0.756604
0.310000,-0.775420
0.311000,-0.784504
0.312000,-0.797482
0.313000,-0.813054
0.314000,-0.825383
0.315000,-0.856528
0.316000,-0.888646
0.317000,-0.913303
0.318000,-0.934715
0.319000,-0.950288
0.320000,-0.960345
0.321000,-0.973647
0.322000,-0.983379
0.323000,-0.981757
0.324000,-0.965536
0.325000,-0.925956
0.326000,-0.882806
0.327000,-0.831222
0.328000,-0.770878
0.329000,-0.708912
0.330000,-0.646298
0.331000,-0.592442
0.332000,-0.541831
0.333000,-0.491220
0.334000,-0.445800
0.335000,-0.412709
0.336000,-0.386105
0.337000,-0.362746
0.338000,-0.340361
0.339000,-0.325437
0.340000,-0.313109
0.341000,-0.304998
0.342000,-0.293967
0.343000,-0.288128
0.344000,-0.296238
0.345000,-0.308567
0.346000,-0.311487
0.347000,-0.307593
0.348000,-0.304025
0.349000,-0.308242
0.350000,-0.306296
0.351000,-0.309540
0.352000,-0.316677
0.353000,-0.322842
0.354000,-0.325113
0.355000,-0.327384
0.356000,-0.324464
0.357000,-0.315055
0.358000,-0.298509
0.359000,-0.288452
0.360000,-0.287154
0.361000,-0.285208
0.362000,-0.280017
0.363000,-0.271582
0.364000,-0.256982
0.365000,-0.249845
0.366000,-0.261849
0.367000,-0.274826
0.368000,-0.272880
0.369000,-0.261200
0.370000,-0.245952
0.371000,-0.232001
0.372000,-0.223242
0.373000,-0.226486
0.374000,-0.227784
0.375000,-0.229730
0.376000,-0.232001
0.377000,-0.225837
0.378000,-0.221944
0.379000,-0.230379
0.380000,-0.230704
0.381000,-0.222593
0.382000,-0.218375
0.383000,-0.227459
0.384000,-0.231353
0.385000,-0.222593
0.386000,-0.215131
0.387000,-0.219998
0.388000,-0.227784
0.389000,-0.231028
0.390000,-0.232001
0.391000,-0.215780
0.392000,-0.197936
0.393000,-0.212211
0.394000,-0.218051
0.395000,-0.216429
0.396000,-0.215780
0.397000,-0.216104
0.398000,-0.209616
0.399000,-0.203127
0.400000,-0.214807
0.401000,-0.224864
0.402000,-0.235570
0.403000,-0.247250
0.404000,-0.250818
0.405000,-0.255036
0.406000,-0.253738
0.407000,-0.248547
0.408000,-0.248872
0.409000,-0.253414
0.410000,-0.258605
0.411000,-0.259578
0.412000,-0.260227
0.413000,-0.245952
0.414000,-0.232650
0.415000,-0.227135
0.416000,-0.219673
0.417000,-0.221295
0.418000,-0.228433
0.419000,-0.240761
0.420000,-0.244654
0.421000,-0.249521
0.422000,-0.264120
0.423000,-0.271906
0.424000,-0.269635
0.425000,-0.259578
0.426000,-0.251143
0.427000,-0.249196
0.428000,-0.249196
0.429000,-0.243032
0.430000,-0.239463
0.431000,-0.239139
0.432000,-0.240437
0.433000,-0.244979
0.434000,-0.246925
0.435000,-0.242383
0.436000,-0.229082
0.437000,-0.222917
0.438000,-0.219024
0.439000,-0.223891
0.440000,-0.231353
0.441000,-0.232001
0.442000,-0.238814
0.443000,-0.250494
0.444000,-0.259902
0.445000,-0.270609
0.446000,-0.268338
0.447000,-0.259253
0.448000,-0.253738
0.449000,-0.248547
0.450000,-0.242383
0.451000,-0.238490
0.452000,-0.239139
0.453000,-0.241410
0.454000,-0.246276
0.455000,-0.247574
0.456000,-0.240761
0.457000,-0.223891
0.458000,-0.211238
0.459000,-0.203776
0.460000,-0.195665
0.461000,-0.186906
0.462000,-0.179768
0.463000,-0.180417
0.464000,-0.183013
0.465000,-0.179768
0.466000,-0.164196
0.467000,-0.141810
0.468000,-0.111638
0.469000,-0.075951
0.470000,-0.038317
0.471000,-0.003279
0.472000,0.021378
0.473000,0.029164
0.474000,0.033382
0.475000,0.042466
0.476000,0.049928
0.477000,0.042790
0.478000,0.039222
0.479000,0.038897
0.480000,0.049603
0.481000,0.054145
0.482000,0.033382
0.483000,0.009050
0.484000,-0.009118
0.485000,-0.035397
0.486000,-0.078546
0.487000,-0.111638
0.488000,-0.129157
0.489000,-0.141810
0.490000,-0.158680
0.491000,-0.170360
0.492000,-0.181715
0.493000,-0.186906
0.494000,-0.187879
0.495000,-0.194692
0.496000,-0.209291
0.497000,-0.214158
0.498000,-0.206371
0.499000,-0.201829
0.500000,-0.200207
0.501000,-0.189501
0.502000,-0.174577
0.503000,-0.170035
0.504000,-0.175226
0.505000,-0.178795
0.506000,-0.185284
0.507000,-0.195990
0.508000,-0.206371
0.509000,-0.221944
0.510000,-0.231028
0.511000,-0.232975
0.512000,-0.240437
0.513000,-0.246925
0.514000,-0.244330
0.515000,-0.237192
0.516000,-0.236868
0.517000,-0.238814
0.518000,-0.245303
0.519000,-0.247250
0.520000,-0.251143
0.521000,-0.259902
0.522000,-0.269635
0.523000,-0.272880
0.524000,-0.269635
0.525000,-0.265742
0.526000,-0.257956
0.527000,-0.257307
0.528000,-0.249845
0.529000,-0.241734
0.530000,-0.248872
0.531000,-0.259253
0.532000,-0.268013
0.533000,-0.269635
0.534000,-0.263471
0.535000,-0.261524
0.536000,-0.256982
0.537000,-0.246276
0.538000,-0.249521
0.539000,-0.258929
0.540000,-0.264120
0.541000,-0.254063
0.542000,-0.247898
0.543000,-0.248872
0.544000,-0.244330
0.545000,-0.237517
0.546000,-0.233624
0.547000,-0.239139
0.548000,-0.244330
0.549000,-0.245303
0.550000,-0.249845
0.551000,-0.286181
0.552000,-0.354311
0.553000,-0.441258
0.554000,-0.562270
0.555000,-0.731298
0.556000,-0.925307
0.557000,-1.124830
0.558000,-1.306186
0.559000,-1.448286
0.560000,-1.521282
0.561000,-1.522904
0.562000,-1.434335
0.563000,-1.262388
0.564000,-1.020040
0.565000,-0.713779
0.566000,-0.326086
0.567000,0.142715
0.568000,0.629035
0.569000,1.096215
0.570000,1.558853
0.571000,1.971853
0.572000,2.330674
0.573000,2.622013
0.574000,2.814076
0.575000,2.937360
0.576000,2.967857
0.577000,2.874421
0.578000,2.640181
0.579000,2.282658
0.580000,1.880363
0.581000,1.476772
0.582000,1.100432
0.583000,0.736746
0.584000,0.430808
0.585000,0.208898
0.586000,0.053172
0.587000,-0.022420
0.588000,-0.049996
0.589000,-0.047725
0.590000,-0.042210
0.591000,-0.042210
0.592000,-0.044481
0.593000,-0.052267
0.594000,-0.067840
0.595000,-0.093146
0.596000,-0.117802
0.597000,-0.142783
0.598000,-0.172955
0.599000,-0.199234
0.600000,-0.224540
0.601000,-0.244330
0.602000,-0.259578
0.603000,-0.278719
0.604000,-0.302078
0.605000,-0.322517
0.606000,-0.334197
0.607000,-0.348472
0.608000,-0.365991
0.609000,-0.378319
0.610000,-0.382212
0.611000,-0.389350
0.612000,-0.389025
0.613000,-0.387728
0.614000,-0.378968
0.615000,-0.378319
0.616000,-0.402327
0.617000,-0.418224
0.618000,-0.430552
0.619000,-0.444827
0.620000,-0.454236
0.621000,-0.452289
0.622000,-0.442881
0.623000,-0.436392
0.624000,-0.436067
0.625000,-0.448396
0.626000,-0.452938
0.627000,-0.458453
0.628000,-0.462022
0.629000,-0.452613
0.630000,-0.450342
0.631000,-0.462346
0.632000,-0.467213
0.633000,-0.469159
0.634000,-0.458453
0.635000,-0.443854
0.636000,-0.436067
0.637000,-0.421468
0.638000,-0.415304
0.639000,-0.435419
0.640000,-0.456507
0.641000,-0.449369
0.642000,-0.449045
0.643000,-0.464293
0.644000,-0.458129
0.645000,-0.452289
0.646000,-0.463320
0.647000,-0.474350
0.648000,-0.474350
0.649000,-0.479541
0.650000,-0.488301
0.651000,-0.491545
0.652000,-0.493816
0.653000,-0.499331
0.654000,-0.506469
0.655000,-0.510037
0.656000,-0.519446
0.657000,-0.531450
0.658000,-0.535343
0.659000,-0.531450
0.660000,-0.524637
0.661000,-0.532099
0.662000,-0.536965
0.663000,-0.541183
0.664000,-0.542156
0.665000,-0.546698
0.666000,-0.559999
0.667000,-0.569732
0.668000,-0.579141
0.669000,-0.593091
0.670000,-0.602175
0.671000,-0.617099
0.672000,-0.637214
0.673000,-0.650515
0.674000,-0.650191
0.675000,-0.656031
0.676000,-0.658626
0.677000,-0.654084
0.678000,-0.653435
0.679000,-0.669332
0.680000,-0.688473
0.681000,-0.698531
0.682000,-0.695935
0.683000,-0.699180
0.684000,-0.720916
0.685000,-0.741680
0.686000,-0.762768
0.687000,-0.769581
0.688000,-0.765039
0.689000,-0.764065
0.690000,-0.776718
0.691000,-0.790344
0.692000,-0.800077
0.693000,-0.797806
0.694000,-0.799753
0.695000,-0.802672
0.696000,-0.799428
0.697000,-0.809810
0.698000,-0.833818
0.699000,-0.862367
0.700000,-0.887024
0.701000,-0.920765
0.702000,-0.946719
0.703000,-0.965536
0.704000,-0.982406
0.705000,-0.996357
0.706000,-1.022635
0.707000,-1.051834
0.708000,-1.066758
0.709000,-1.065460
0.710000,-1.043399
0.711000,-0.997330
0.712000,-0.947368
0.713000,-0.897081
0.714000,-0.845173
0.715000,-0.783207
0.716000,-0.716699
0.717000,-0.649218
0.718000,-0.588225
0.719000,-0.535343
0.720000,-0.485705
0.721000,-0.431525
0.722000,-0.381239
0.723000,-0.342632
0.724000,-0.322517
0.725000,-0.304349
0.726000,-0.287479
0.727000,-0.278719
0.728000,-0.275151
0.729000,-0.265418
0.730000,-0.257307
0.731000,-0.245627
0.732000,-0.234921
0.733000,-0.229082
0.734000,-0.221295
0.735000,-0.216104
0.736000,-0.218375
0.737000,-0.221944
0.738000,-0.215456
0.739000,-0.217402
0.740000,-0.221944
0.741000,-0.230704
0.742000,-0.240437
0.743000,-0.237192
0.744000,-0.225837
0.745000,-0.210589
0.746000,-0.200532
0.747000,-0.204749
0.748000,-0.199883
0.749000,-0.191123
0.750000,-0.204425
0.751000,-0.229082
0.752000,-0.231028
0.753000,-0.228433
0.754000,-0.232326
0.755000,-0.219024
0.756000,-0.207345
0.757000,-0.227459
0.758000,-0.242059
0.759000,-0.242708
0.760000,-0.243681
0.761000,-0.241410
0.762000,-0.245303
0.763000,-0.251467
0.764000,-0.254063
0.765000,-0.251467
0.766000,-0.244330
0.767000,-0.245627
0.768000,-0.253089
0.769000,-0.253089
0.770000,-0.252440
0.771000,-0.260876
0.772000,-0.265418
0.773000,-0.262822
0.774000,-0.257956
0.775000,-0.259902
0.776000,-0.257956
0.777000,-0.252440
0.778000,-0.249521
0.779000,-0.254387
0.780000,-0.260227
0.781000,-0.255036
0.782000,-0.246276
0.783000,-0.247898
0.784000,-0.257631
0.785000,-0.267364
0.786000,-0.269960
0.787000,-0.268662
0.788000,-0.264769
0.789000,-0.262822
0.790000,-0.250818
0.791000,-0.243356
0.792000,-0.253738
0.793000,-0.274177
0.794000,-0.279044
0.795000,-0.279044
0.796000,-0.271906
0.797000,-0.264769
0.798000,-0.258605
0.799000,-0.262822
0.800000,-0.258605
0.801000,-0.254387
0.802000,-0.253414
0.803000,-0.254711
0.804000,-0.256009
0.805000,-0.259253
0.806000,-0.260227
0.807000,-0.255685
0.808000,-0.252440
0.809000,-0.245627
0.810000,-0.235246
0.811000,-0.234272
0.812000,-0.243032
0.813000,-0.246601
0.814000,-0.232975
0.815000,-0.229082
0.816000,-0.221295
0.817000,-0.219673
0.818000,-0.226162
0.819000,-0.234272
0.820000,-0.234921
0.821000,-0.233299
0.822000,-0.236219
0.823000,-0.240761
0.824000,-0.243356
0.825000,-0.245627
0.826000,-0.247250
0.827000,-0.245303
0.828000,-0.244330
0.829000,-0.248223
0.830000,-0.250169
0.831000,-0.243032
0.832000,-0.239139
0.833000,-0.231677
0.834000,-0.221295
0.835000,-0.212860
0.836000,-0.202478
0.837000,-0.200856
0.838000,-0.196314
0.839000,-0.211238
0.840000,-0.220971
0.841000,-0.224215
0.842000,-0.216104
0.843000,-0.198261
0.844000,-0.183013
0.845000,-0.190799
0.846000,-0.185932
0.847000,-0.168089
0.848000,-0.140512
0.849000,-0.104501
0.850000,-0.082115
0.851000,-0.066867
0.852000,-0.057458
0.853000,-0.045130
0.854000,-0.034424
0.855000,-0.029557
0.856000,-0.025989
0.857000,-0.024042
0.858000,-0.018851
0.859000,-0.015607
0.860000,-0.023393
0.861000,-0.050970
0.862000,-0.077249
0.863000,-0.103203
0.864000,-0.130455
0.865000,-0.158031
0.866000,-0.188528
0.867000,-0.208642
0.868000,-0.227784
0.869000,-0.233948
0.870000,-0.223242
0.871000,-0.229730
0.872000,-0.244979
0.873000,-0.256982
0.874000,-0.263795
0.875000,-0.258929
0.876000,-0.246601
0.877000,-0.239139
0.878000,-0.237192
0.879000,-0.235246
0.880000,-0.233299
0.881000,-0.236219
0.882000,-0.232001
0.883000,-0.230379
0.884000,-0.228757
0.885000,-0.231677
0.886000,-0.221295
0.887000,-0.206371
0.888000,-0.197612
0.889000,-0.192745
0.890000,-0.186257
0.891000,-0.188203
0.892000,-0.197287
0.893000,-0.201181
0.894000,-0.203452
0.895000,-0.199883
0.896000,-0.191448
0.897000,-0.179119
0.898000,-0.161276
0.899000,-0.163547
0.900000,-0.180417
0.901000,-0.193394
0.902000,-0.194043
0.903000,-0.199883
0.904000,-0.197936
0.905000,-0.197287
0.906000,-0.208318
0.907000,-0.208642
0.908000,-0.199558
0.909000,-0.195016
0.910000,-0.191123
0.911000,-0.189826
0.912000,-0.195665
0.913000,-0.195665
0.914000,-0.183661
0.915000,-0.181390
0.916000,-0.184310
0.917000,-0.193719
0.918000,-0.195341
0.919000,-0.183337
0.920000,-0.167440
0.921000,-0.164845
0.922000,-0.164196
0.923000,-0.163547
0.924000,-0.167116
0.925000,-0.168738
0.926000,-0.168413
0.927000,-0.170360
0.928000,-0.176848
0.929000,-0.210913
0.930000,-0.271582
0.931000,-0.349120
0.932000,-0.459426
0.933000,-0.621641
0.934000,-0.808188
0.935000,-0.999276
0.936000,-1.196529
0.937000,-1.340900
0.938000,-1.427522
0.939000,-1.443419
0.940000,-1.365232
0.941000,-1.191987
0.942000,-0.947368
0.943000,-0.634294
0.944000,-0.236543
0.945000,0.233555
0.946000,0.696517
0.947000,1.151692
0.948000,1.611735
0.949000,2.019544
0.950000,2.356953
0.951000,2.643425
0.952000,2.843924
0.953000,2.983754
0.954000,3.027877
0.955000,2.936063
0.956000,2.695334
0.957000,2.345598
0.958000,1.953685
0.959000,1.563719
0.960000,1.191597
0.961000,0.824342
0.962000,0.524893
0.963000,0.310121
0.964000,0.160558
0.965000,0.090806
0.966000,0.076856
0.967000,0.084966
0.968000,0.095348
0.969000,0.088211
0.970000,0.083669
0.971000,0.078802
0.972000,0.064852
0.973000,0.038573
0.974000,0.009699
0.975000,-0.017553
0.976000,-0.046103
0.977000,-0.074004
0.978000,-0.100607
0.979000,-0.127535
0.980000,-0.157707
0.981000,-0.184635
0.982000,-0.207669
0.983000,-0.223891
0.984000,-0.234921
0.985000,-0.226811
0.986000,-0.220646
0.987000,-0.222269
0.988000,-0.239463
0.989000,-0.251143
0.990000,-0.256658
0.991000,-0.276773
0.992000,-0.302727
0.993000,-0.316677
0.994000,-0.325113
0.995000,-0.333548
0.996000,-0.341983
0.997000,-0.346201
0.998000,-0.351067
0.999000,-0.362422
1.000000,-0.367613
1.001000,-0.369235
1.002000,-0.359502
1.003000,-0.362422
1.004000,-0.366315
1.005000,-0.369884
1.006000,-0.371182
1.007000,-0.370857
1.008000,-0.368586
1.009000,-0.363071
1.010000,-0.355285
1.011000,-0.352689
1.012000,-0.359502
1.013000,-0.367937
1.014000,-0.367937
1.015000,-0.365342
1.016000,-0.357556
1.017000,-0.350094
1.018000,-0.330628
1.019000,-0.323815
1.020000,-0.326735
1.021000,-0.322517
1.022000,-0.338414
1.023000,-0.357231
1.024000,-0.374101
1.025000,-0.383510
1.026000,-0.379617
1.027000,-0.368262
1.028000,-0.363395
1.029000,-0.365342
1.030000,-0.358204
1.031000,-0.353338
1.032000,-0.365991
1.033000,-0.383186
1.034000,-0.397460
1.035000,-0.404273
1.036000,-0.408815
1.037000,-0.412384
1.038000,-0.416602
1.039000,-0.417899
1.040000,-0.412060
1.041000,-0.404598
1.042000,-0.401678
1.043000,-0.410113
1.044000,-0.421793
1.045000,-0.431850
1.046000,-0.439961
1.047000,-0.446449
1.048000,-0.456182
1.049000,-0.463320
1.050000,-0.470457
1.051000,-0.473377
1.052000,-0.472404
1.053000,-0.475323
1.054000,-0.467537
1.055000,-0.458453
1.056000,-0.463320
1.057000,-0.489274
1.058000,-0.506144
1.059000,-0.530801
1.060000,-0.546373
1.061000,-0.547996
1.062000,-0.547671
1.063000,-0.559351
1.064000,-0.574274
1.065000,-0.582385
1.066000,-0.597958
1.067000,-0.612881
1.068000,-0.629103
1.069000,-0.640782
1.070000,-0.651813
1.071000,-0.655706
1.072000,-0.657977
1.073000,-0.663168
1.074000,-0.673874
1.075000,-0.686851
1.076000,-0.705668
1.077000,-0.724485
1.078000,-0.746222
1.079000,-0.778989
1.080000,-0.804295
1.081000,-0.823760
1.082000,-0.850039
1.083000,-0.882158
1.084000,-0.900326
1.085000,-0.902921
1.086000,-0.901623
1.087000,-0.887673
1.088000,-0.857825
1.089000,-0.819218
1.090000,-0.770878
1.091000,-0.717023
1.092000,-0.660897
1.093000,-0.605095
1.094000,-0.537289
1.095000,-0.466888
1.096000,-0.400056
1.097000,-0.341983
1.098000,-0.301105
1.099000,-0.262498
1.100000,-0.229082
1.101000,-0.196639
1.102000,-0.168089
1.103000,-0.150245
1.104000,-0.147650
1.105000,-0.142134
1.106000,-0.129157
1.107000,-0.112611
1.108000,-0.096390
1.109000,-0.082764
1.110000,-0.075951
1.111000,-0.077573
1.112000,-0.071733
1.113000,-0.056485
1.114000,-0.036695
1.115000,-0.034099
1.116000,-0.044157
1.117000,-0.047077
1.118000,-0.040264
1.119000,-0.031828
1.120000,-0.031828
1.121000,-0.028909
1.122000,-0.027935
1.123000,-0.021447
1.124000,-0.012687
1.125000,-0.007172
1.126000,-0.002305
1.127000,0.004832
1.128000,0.012943
1.129000,0.017485
1.130000,0.021378
1.131000,0.020080
1.132000,0.017485
1.133000,0.020405
1.134000,0.024947
1.135000,0.026245
1.136000,0.025271
1.137000,0.014565
1.138000,0.014889
1.139000,0.017485
1.140000,0.020080
1.141000,0.022027
1.142000,0.023973
1.143000,0.028516
1.144000,0.032733
1.145000,0.023973
1.146000,0.017809
1.147000,0.010347
1.148000,0.011321
1.149000,0.002561
1.150000,-0.003603
1.151000,-0.004252
1.152000,-0.002305
1.153000,-0.003927
1.154000,-0.003927
1.155000,-0.004576
1.156000,-0.016905
1.157000,-0.023069
1.158000,-0.021447
1.159000,-0.014634
1.160000,-0.011714
1.161000,-0.011389
1.162000,-0.014958
1.163000,-0.023393
1.164000,-0.033775
1.165000,-0.035722
1.166000,-0.031504
1.167000,-0.035397
1.168000,-0.042859
1.169000,-0.037668
1.170000,-0.026638
1.171000,-0.013985
1.172000,-3.429578E-5
1.173000,0.003859
1.174000,-0.000683
1.175000,-0.002630
1.176000,-0.001981
1.177000,-0.004576
1.178000,-0.004901
1.179000,-0.001981
1.180000,-0.000359
1.181000,0.003210
1.182000,0.005805
1.183000,0.000939
1.184000,-0.005225
1.185000,-3.429578E-5
1.186000,0.007752
1.187000,0.015538
1.188000,0.021378
1.189000,0.013592
1.190000,0.003859
1.191000,-0.004252
1.192000,-0.010092
1.193000,-0.006847
1.194000,0.007428
1.195000,0.015538
1.196000,0.018134
1.197000,0.019107
1.198000,0.022676
1.199000,0.023325
1.200000,0.021378
1.201000,0.018458
1.202000,0.013267
1.203000,0.022351
1.204000,0.030462
1.205000,0.035653
1.206000,0.034355
1.207000,0.031435
1.208000,0.039871
1.209000,0.058039
1.210000,0.074585
1.211000,0.075558
1.212000,0.081073
1.213000,0.088859
1.214000,0.089833
1.215000,0.091455
1.216000,0.093726
1.217000,0.090157
1.218000,0.086264
1.219000,0.084317
1.220000,0.092753
1.221000,0.111894
1.222000,0.132982
1.223000,0.153097
1.224000,0.178402
1.225000,0.204681
1.226000,0.229662
1.227000,0.252696
1.228000,0.271189
1.229000,0.277678
1.230000,0.277678
1.231000,0.277678
1.232000,0.273136
1.233000,0.264051
1.234000,0.261780
1.235000,0.262754
1.236000,0.266647
1.237000,0.264700
1.238000,0.252696
1.239000,0.231933
1.240000,0.191055
1.241000,0.141417
1.242000,0.103459
1.243000,0.084966
1.244000,0.083669
1.245000,0.089833
1.246000,0.085615
1.247000,0.073936
1.248000,0.071016
1.249000,0.074585
1.250000,0.092428
1.251000,0.083669
1.252000,0.055119
1.253000,0.031760
1.254000,0.024298
1.255000,0.033706
1.256000,0.039546
1.257000,0.037924
1.258000,0.022676
1.259000,0.010672
1.260000,0.008401
1.261000,0.011321
1.262000,0.019431
1.263000,0.029813
1.264000,0.037275
1.265000,0.043439
1.266000,0.051874
1.267000,0.056416
1.268000,0.058363
1.269000,0.056092
1.270000,0.059012
1.271000,0.063229
1.272000,0.063554
1.273000,0.065500
1.274000,0.073287
1.275000,0.076531
1.276000,0.074260
1.277000,0.066798
1.278000,0.066798
1.279000,0.071016
1.280000,0.071989
1.281000,0.064527
1.282000,0.058363
1.283000,0.058363
1.284000,0.063554
1.285000,0.074260
1.286000,0.075233
1.287000,0.074260
1.288000,0.068096
1.289000,0.067447
1.290000,0.069718
1.291000,0.078802
1.292000,0.085940
1.293000,0.092104
1.294000,0.095997
1.295000,0.095024
1.296000,0.098917
1.297000,0.112867
1.298000,0.119680
1.299000,0.113516
1.300000,0.107676
1.301000,0.100214
1.302000,0.095997
1.303000,0.096646
1.304000,0.107027
1.305000,0.108650
1.306000,0.077829
1.307000,0.015863
1.308000,-0.046103
1.309000,-0.135646
1.310000,-0.279693
1.311000,-0.461049
1.312000,-0.656355
1.313000,-0.846795
1.314000,-1.004143
1.315000,-1.096281
1.316000,-1.120937
1.317000,-1.071300
1.318000,-0.935040
1.319000,-0.739084
1.320000,-0.469159
1.321000,-0.124940
1.322000,0.306876
1.323000,0.756861
1.324000,1.195166
1.325000,1.627632
1.326000,2.036090
1.327000,2.394911
1.328000,2.715449
1.329000,2.952609
1.330000,3.108660
1.331000,3.167058
1.332000,3.094385
1.333000,2.884478
1.334000,2.569455
1.335000,2.204470
1.336000,1.828454
1.337000,1.472554
1.338000,1.136768
1.339000,0.843483
1.340000,0.629035
1.341000,0.471687
1.342000,0.384091
1.343000,0.353594
1.344000,0.348079
1.345000,0.356838
1.346000,0.371762
1.347000,0.369491
1.348000,0.345159
1.349000,0.317907
1.350000,0.293575
1.351000,0.262105
1.352000,0.240044
1.353000,0.218631
1.354000,0.198192
1.355000,0.174184
1.356000,0.141093
1.357000,0.105730
1.358000,0.080424
1.359000,0.064527
1.360000,0.068096
1.361000,0.066474
1.362000,0.055768
1.363000,0.043439
1.364000,0.022676
1.365000,-0.001656
1.366000,-0.012038
1.367000,-0.013985
1.368000,-0.014958
1.369000,-0.005550
1.370000,-0.011714
1.371000,-0.028909
1.372000,-0.041886
1.373000,-0.045779
1.374000,-0.043508
1.375000,-0.040912
1.376000,-0.049672
1.377000,-0.062649
1.378000,-0.064920
1.379000,-0.061351
1.380000,-0.053241
1.381000,-0.049996
1.382000,-0.051294
1.383000,-0.056809
1.384000,-0.059729
1.385000,-0.065894
1.386000,-0.073031
1.387000,-0.082764
1.388000,-0.079844
1.389000,-0.076600
1.390000,-0.077249
1.391000,-0.080817
1.392000,-0.095417
1.393000,-0.101256
1.394000,-0.103203
1.395000,-0.113585
1.396000,-0.121371
1.397000,-0.125913
1.398000,-0.119100
1.399000,-0.114882
1.400000,-0.111962
1.401000,-0.121695
1.402000,-0.126886
1.403000,-0.124615
1.404000,-0.114234
1.405000,-0.115856
1.406000,-0.118127
1.407000,-0.120398
1.408000,-0.124615
1.409000,-0.133050
1.410000,-0.146676
1.411000,-0.164845
1.412000,-0.181715
1.413000,-0.184959
1.414000,-0.179768
1.415000,-0.175551
1.416000,-0.181066
1.417000,-0.190799
1.418000,-0.202803
1.419000,-0.209940
1.420000,-0.223566
1.421000,-0.236543
1.422000,-0.243356
1.423000,-0.243681
1.424000,-0.250169
1.425000,-0.253089
1.426000,-0.253738
1.427000,-0.252116
1.428000,-0.246601
1.429000,-0.266391
1.430000,-0.287479
1.431000,-0.301429
1.432000,-0.309540
1.433000,-0.311162
1.434000,-0.313433
1.435000,-0.317651
1.436000,-0.319273
1.437000,-0.317975
1.438000,-0.319273
1.439000,-0.330952
1.440000,-0.336468
1.441000,-0.334846
1.442000,-0.341983
1.443000,-0.347823
1.444000,-0.353987
1.445000,-0.361449
1.446000,-0.368911
1.447000,-0.372155
1.448000,-0.365017
1.449000,-0.370533
1.450000,-0.381563
1.451000,-0.386754
1.452000,-0.403300
1.453000,-0.422766
1.454000,-0.441583
1.455000,-0.465591
1.456000,-0.481163
1.457000,-0.495438
1.458000,-0.512957
1.459000,-0.538912
1.460000,-0.561622
1.461000,-0.586927
1.462000,-0.602175
1.463000,-0.609637
1.464000,-0.602824
1.465000,-0.585629
1.466000,-0.561946
1.467000,-0.520419
1.468000,-0.463968
1.469000,-0.395838
1.470000,-0.318300
1.471000,-0.243681
1.472000,-0.180417
1.473000,-0.132077
1.474000,-0.087306
1.475000,-0.048050
1.476000,-0.015282
1.477000,0.011645
1.478000,0.027867
1.479000,0.039871
1.480000,0.051226
1.481000,0.062581
1.482000,0.070043
1.483000,0.081722
1.484000,0.087237
1.485000,0.098268
1.486000,0.120005
1.487000,0.129089
1.488000,0.118058
1.489000,0.105081
1.490000,0.106379
1.491000,0.118058
1.492000,0.130711
1.493000,0.137848
1.494000,0.138822
1.495000,0.135577
1.496000,0.133631
1.497000,0.119356
1.498000,0.120654
1.499000,0.140444
1.500000,0.156990
1.501000,0.153745
1.502000,0.152123
1.503000,0.160883
1.504000,0.168345
1.505000,0.170940
1.506000,0.181971
1.507000,0.177104
1.508000,0.154394
1.509000,0.147906
1.510000,0.147581
1.511000,0.141741
1.512000,0.129413
1.513000,0.130386
1.514000,0.141417
1.515000,0.150177
1.516000,0.139795
1.517000,0.123573
1.518000,0.119031
1.519000,0.111894
1.520000,0.103134
1.521000,0.091455
1.522000,0.088535
1.523000,0.088859
1.524000,0.089508
1.525000,0.085291
1.526000,0.084317
1.527000,0.088535
1.528000,0.083993
1.529000,0.080424
1.530000,0.083993
1.531000,0.087237
1.532000,0.091779
1.533000,0.090806
1.534000,0.087886
1.535000,0.091130
1.536000,0.108974
1.537000,0.117734
1.538000,0.113516
1.539000,0.109623
1.540000,0.106703
1.541000,0.090806
1.542000,0.077829
1.543000,0.075882
1.544000,0.086264
1.545000,0.093077
1.546000,0.095348
1.547000,0.095024
1.548000,0.092428
1.549000,0.092104
1.550000,0.095997
1.551000,0.099890
1.552000,0.094050
1.553000,0.087237
1.554000,0.075233
1.555000,0.051550
1.556000,0.031435
1.557000,0.026569
1.558000,0.036302
1.559000,0.041817
1.560000,0.041493
1.561000,0.031760
1.562000,0.025920
1.563000,0.021378
1.564000,0.019431
1.565000,0.010347
1.566000,0.008401
1.567000,0.010672
1.568000,0.018783
1.569000,0.025271
1.570000,0.024622
1.571000,0.024622
1.572000,0.025920
1.573000,0.025596
1.574000,0.028516
1.575000,0.030462
1.576000,0.023649
1.577000,0.015538
1.578000,0.028191
1.579000,0.041168
1.580000,0.050901
1.581000,0.048630
1.582000,0.035653
1.583000,0.031435
1.584000,0.027218
1.585000,0.020080
1.586000,0.015863
1.587000,0.020405
1.588000,0.034355
1.589000,0.040195
1.590000,0.043439
1.591000,0.056741
1.592000,0.071665
1.593000,0.089833
1.594000,0.089508
1.595000,0.070691
1.596000,0.050901
1.597000,0.042466
1.598000,0.036951
1.599000,0.045386
1.600000,0.067447
1.601000,0.095348
1.602000,0.118058
1.603000,0.114165
1.604000,0.101188
1.605000,0.090157
1.606000,0.096646
1.607000,0.106379
1.608000,0.122276
1.609000,0.153097
1.610000,0.185215
1.611000,0.208250
1.612000,0.224471
1.613000,0.236475
1.614000,0.236799
1.615000,0.235177
1.616000,0.239395
1.617000,0.240693
1.618000,0.229337
1.619000,0.215063
1.620000,0.205005
1.621000,0.196246
1.622000,0.184242
1.623000,0.168345
1.624000,0.151474
1.625000,0.128440
1.626000,0.097619
1.627000,0.073936
1.628000,0.061932
1.629000,0.051550
1.630000,0.033382
1.631000,0.015538
1.632000,0.010996
1.633000,0.019431
1.634000,0.034680
1.635000,0.024622
1.636000,0.012618
1.637000,0.011970
1.638000,-0.000683
1.639000,-0.009118
1.640000,-0.013336
1.641000,0.002886
1.642000,0.018783
1.643000,0.012294
1.644000,-0.011714
1.645000,-0.018202
1.646000,-0.028260
1.647000,-0.048374
1.648000,-0.057134
1.649000,-0.057134
1.650000,-0.056485
1.651000,-0.058756
1.652000,-0.064596
1.653000,-0.069462
1.654000,-0.068165
1.655000,-0.064920
1.656000,-0.063622
1.657000,-0.062649
1.658000,-0.053890
1.659000,-0.048374
1.660000,-0.048699
1.661000,-0.047077
1.662000,-0.036695
1.663000,-0.038317
1.664000,-0.041561
1.665000,-0.038317
1.666000,-0.041886
1.667000,-0.037344
1.668000,-0.026962
1.669000,-0.022096
1.670000,-0.024042
1.671000,-0.030531
1.672000,-0.030855
1.673000,-0.030531
1.674000,-0.030855
1.675000,-0.025664
1.676000,-0.014958
1.677000,-0.004576
1.678000,0.003534
1.679000,0.003534
1.680000,0.002886
1.681000,0.012943
1.682000,0.023973
1.683000,0.045061
1.684000,0.056741
1.685000,0.050577
1.686000,0.034355
1.687000,0.040844
1.688000,0.055443
1.689000,0.050577
1.690000,0.024947
1.691000,-0.025989
1.692000,-0.100607
1.693000,-0.198910
1.694000,-0.325113
1.695000,-0.488301
1.696000,-0.670305
1.697000,-0.866261
1.698000,-1.047941
1.699000,-1.168628
1.700000,-1.215346
1.701000,-1.187121
1.702000,-1.069353
1.703000,-0.890917
1.704000,-0.648893
1.705000,-0.334846
1.706000,0.071016
1.707000,0.537546
1.708000,1.006996
1.709000,1.449844
1.710000,1.881012
1.711000,2.261894
1.712000,2.610982
1.713000,2.887073
1.714000,3.073622
1.715000,3.182955
1.716000,3.178089
1.717000,3.020415
1.718000,2.745946
1.719000,2.400426
1.720000,2.040308
1.721000,1.677919
1.722000,1.320072
1.723000,0.976175
1.724000,0.708196
1.725000,0.524244
1.726000,0.401934
1.727000,0.340617
1.728000,0.311743
1.729000,0.301685
1.730000,0.305578
1.731000,0.305578
1.732000,0.293575
1.733000,0.285464
1.734000,0.274433
1.735000,0.260807
1.736000,0.239395
1.737000,0.209547
1.738000,0.172562
1.739000,0.134928
1.740000,0.112867
1.741000,0.091130
1.742000,0.066474
1.743000,0.046684
1.744000,0.035004
1.745000,0.018458
1.746000,0.002237
1.747000,-0.010092
1.748000,-0.020149
1.749000,-0.037019
1.750000,-0.048050
1.751000,-0.061351
1.752000,-0.071733
1.753000,-0.081466
1.754000,-0.087955
1.755000,-0.091523
1.756000,-0.099310
1.757000,-0.099959
1.758000,-0.102878
1.759000,-0.113585
1.760000,-0.123642
1.761000,-0.122020
1.762000,-0.122669
1.763000,-0.121695
1.764000,-0.113909
1.765000,-0.114234
1.766000,-0.125264
1.767000,-0.133699
1.768000,-0.129157
1.769000,-0.130455
1.770000,-0.141161
1.771000,-0.155112
1.772000,-0.175226
1.773000,-0.177822
1.774000,-0.175875
1.775000,-0.184959
1.776000,-0.190150
1.777000,-0.182039
1.778000,-0.184310
1.779000,-0.183013
1.780000,-0.181390
1.781000,-0.189501
1.782000,-0.210913
1.783000,-0.230055
1.784000,-0.243681
1.785000,-0.247250
1.786000,-0.243681
1.787000,-0.241734
1.788000,-0.237517
1.789000,-0.237192
1.790000,-0.238814
1.791000,-0.242059
1.792000,-0.247250
1.793000,-0.255036
1.794000,-0.255685
1.795000,-0.256658
1.796000,-0.256334
1.797000,-0.267364
1.798000,-0.282288
1.799000,-0.284883
1.800000,-0.278070
1.801000,-0.274502
1.802000,-0.284235
1.803000,-0.293643
1.804000,-0.308567
1.805000,-0.332899
1.806000,-0.345227
1.807000,-0.346201
1.808000,-0.339712
1.809000,-0.334197
1.810000,-0.342307
1.811000,-0.351391
1.812000,-0.347498
1.813000,-0.342956
1.814000,-0.358204
1.815000,-0.377021
1.816000,-0.400056
1.817000,-0.427957
1.818000,-0.450667
1.819000,-0.465915
1.820000,-0.478568
1.821000,-0.486678
1.822000,-0.485381
1.823000,-0.478568
1.824000,-0.479217
1.825000,-0.488625
1.826000,-0.492843
1.827000,-0.494140
1.828000,-0.496087
1.829000,-0.491869
1.830000,-0.487976
1.831000,-0.493816
1.832000,-0.498682
1.833000,-0.506469
1.834000,-0.513606
1.835000,-0.524312
1.836000,-0.541831
1.837000,-0.558702
1.838000,-0.574599
1.839000,-0.591794
1.840000,-0.612233
1.841000,-0.640133
1.842000,-0.666088
1.843000,-0.684256
1.844000,-0.693989
1.845000,-0.712481
1.846000,-0.726432
1.847000,-0.734542
1.848000,-0.742329
1.849000,-0.740058
1.850000,-0.717672
1.851000,-0.674523
1.852000,-0.619370
1.853000,-0.563893
1.854000,-0.499656
1.855000,-0.438663
1.856000,-0.385781
1.857000,-0.327708
1.858000,-0.270284
1.859000,-0.222917
1.860000,-0.182364
1.861000,-0.140837
1.862000,-0.110665
1.863000,-0.089577
1.864000,-0.061676
1.865000,-0.029882
1.866000,-0.025015
1.867000,-0.033126
1.868000,-0.030206
1.869000,-0.024367
1.870000,-0.015931
1.871000,-0.014958
1.872000,-0.016256
1.873000,-0.018851
1.874000,-0.023393
1.875000,-0.019500
1.876000,-0.006523
1.877000,-3.429578E-5
1.878000,-0.002305
1.879000,-0.003603
1.880000,-0.000683
1.881000,0.008725
1.882000,0.016187
1.883000,0.017485
1.884000,0.022027
1.885000,0.028191
1.886000,0.020080
1.887000,0.011645
1.888000,0.010672
1.889000,0.014889
1.890000,0.021378
1.891000,0.035653
1.892000,0.049279
1.893000,0.041493
1.894000,0.033382
1.895000,0.032733
1.896000,0.036302
1.897000,0.044088
1.898000,0.054470
1.899000,0.046684
1.900000,0.044413
1.901000,0.043115
1.902000,0.043115
1.903000,0.045710
1.904000,0.040844
1.905000,0.039222
1.906000,0.040844
1.907000,0.036951
1.908000,0.030138
1.909000,0.028516
1.910000,0.019756
1.911000,0.008401
1.912000,0.001263
1.913000,0.003210
1.914000,0.005481
1.915000,-0.009443
1.916000,-0.018527
1.917000,-0.018527
1.918000,-0.016580
1.919000,-0.016580
1.920000,-0.017553
1.921000,-0.016905
1.922000,-0.014958
1.923000,-0.006523
1.924000,0.004508
1.925000,0.010996
1.926000,0.016836
1.927000,0.022676
1.928000,0.026893
1.929000,0.029813
1.930000,0.030462
1.931000,0.032409
1.932000,0.043115
1.933000,0.045061
1.934000,0.036302
1.935000,0.044088
1.936000,0.055768
1.937000,0.057065
1.938000,0.036626
1.939000,0.021378
1.940000,0.015863
1.941000,0.017160
1.942000,0.024622
1.943000,0.035653
1.944000,0.040844
1.945000,0.035653
1.946000,0.030787
1.947000,0.029164
1.948000,0.023973
1.949000,0.025920
1.950000,0.020729
1.951000,0.015214
1.952000,0.013592
1.953000,0.015214
1.954000,0.016187
1.955000,0.018458
1.956000,0.023325
1.957000,0.029813
1.958000,0.040844
1.959000,0.043439
1.960000,0.042790
1.961000,0.033058
1.962000,0.028516
1.963000,0.029813
1.964000,0.040844
1.965000,0.054470
1.966000,0.057714
1.967000,0.049279
1.968000,0.035977
1.969000,0.030138
1.970000,0.018458
1.971000,0.013916
1.972000,0.020405
1.973000,0.029164
1.974000,0.024298
1.975000,0.025920
1.976000,0.029813
1.977000,0.021378
1.978000,0.024298
1.979000,0.035653
1.980000,0.041168
1.981000,0.040195
1.982000,0.047008
1.983000,0.052199
1.984000,0.047332
1.985000,0.040844
1.986000,0.044737
1.987000,0.055443
1.988000,0.056092
1.989000,0.062256
1.990000,0.066798
1.991000,0.056092
1.992000,0.047008
1.993000,0.048955
1.994000,0.057065
1.995000,0.079127
1.996000,0.121302
1.997000,0.160558
1.998000,0.186837
1.999000,0.197543
2.000000,0.202734
2.001000,0.203383
2.002000,0.199814
2.003000,0.193975
2.004000,0.195597
2.005000,0.193326
2.006000,0.189108
2.007000,0.182944
2.008000,0.175807
2.009000,0.160558
2.010000,0.140119
2.011000,0.112867
2.012000,0.083020
2.013000,0.059661
2.014000,0.037275
2.015000,0.013592
2.016000,-0.001981
2.017000,-0.011389
2.018000,-0.016905
2.019000,-0.027611
2.020000,-0.041561
2.021000,-0.050321
2.022000,-0.052916
2.023000,-0.054863
2.024000,-0.056485
2.025000,-0.061027
2.026000,-0.062000
2.027000,-0.054538
2.028000,-0.049672
2.029000,-0.053241
2.030000,-0.048050
2.031000,-0.039939
2.032000,-0.035722
2.033000,-0.037993
2.034000,-0.043508
2.035000,-0.047077
2.036000,-0.053565
2.037000,-0.049672
2.038000,-0.054863
2.039000,-0.057134
2.040000,-0.062000
2.041000,-0.062325
2.042000,-0.062974
2.043000,-0.059729
2.044000,-0.053241
2.045000,-0.050645
2.046000,-0.052267
2.047000,-0.046752
2.048000,-0.046752
2.049000,-0.050645
2.050000,-0.043183
2.051000,-0.038317
2.052000,-0.037344
2.053000,-0.035073
2.054000,-0.036046
2.055000,-0.038966
2.056000,-0.043508
2.057000,-0.041561
2.058000,-0.036695
2.059000,-0.035073
2.060000,-0.037344
2.061000,-0.042535
2.062000,-0.041561
2.063000,-0.031828
2.064000,-0.011714
2.065000,0.007752
2.066000,0.009699
2.067000,0.000939
2.068000,-0.008469
2.069000,-0.011714
2.070000,-0.016580
2.071000,-0.025340
2.072000,-0.021771
2.073000,-0.013660
2.074000,-0.006523
2.075000,-0.007172
2.076000,-0.017553
2.077000,-0.043508
2.078000,-0.092821
2.079000,-0.161276
2.080000,-0.268013
2.081000,-0.421468
2.082000,-0.603473
2.083000,-0.802672
2.084000,-0.994086
2.085000,-1.135861
2.086000,-1.215670
2.087000,-1.241949
2.088000,-1.181281
2.089000,-1.018093
2.090000,-0.793264
2.091000,-0.511011
2.092000,-0.145379
2.093000,0.289357
2.094000,0.750696
2.095000,1.206521
2.096000,1.662670
2.097000,2.080213
2.098000,2.435465
2.099000,2.727129
2.100000,2.931845
2.101000,3.074595
2.102000,3.123260
2.103000,3.037285
2.104000,2.800450
2.105000,2.455904
2.106000,2.067560
2.107000,1.685380
2.108000,1.341160
2.109000,0.999859
2.110000,0.694894
2.111000,0.473633
2.112000,0.318556
2.113000,0.233880
2.114000,0.208250
2.115000,0.210196
2.116000,0.223498
2.117000,0.232906
2.118000,0.232257
2.119000,0.212143
2.120000,0.184891
2.121000,0.161532
2.122000,0.132982
2.123000,0.098917
2.124000,0.069394
2.125000,0.038897
2.126000,0.011321
2.127000,-0.010416
2.128000,-0.030531
2.129000,-0.042859
2.130000,-0.051294
2.131000,-0.060378
2.132000,-0.059080
2.133000,-0.059080
2.134000,-0.066867
2.135000,-0.078222
2.136000,-0.087630
2.137000,-0.092821
2.138000,-0.110340
2.139000,-0.120398
2.140000,-0.127860
2.141000,-0.128184
2.142000,-0.132077
2.143000,-0.141161
2.144000,-0.141161
2.145000,-0.135321
2.146000,-0.125589
2.147000,-0.126562
2.148000,-0.134024
2.149000,-0.142459
2.150000,-0.140188
2.151000,-0.130131
2.152000,-0.127211
2.153000,-0.127535
2.154000,-0.121695
2.155000,-0.122669
2.156000,-0.125589
2.157000,-0.137592
2.158000,-0.141486
2.159000,-0.153165
2.160000,-0.177173
2.161000,-0.186906
2.162000,-0.184959
2.163000,-0.175226
2.164000,-0.173929
2.165000,-0.170684
2.166000,-0.176524
2.167000,-0.185932
2.168000,-0.195990
2.169000,-0.203127
2.170000,-0.207345
2.171000,-0.206696
2.172000,-0.206371
2.173000,-0.189501
2.174000,-0.180742
2.175000,-0.198261
2.176000,-0.219349
2.177000,-0.219349
2.178000,-0.218051
2.179000,-0.228433
2.180000,-0.232975
2.181000,-0.242383
2.182000,-0.256658
2.183000,-0.268013
2.184000,-0.261200
2.185000,-0.256982
2.186000,-0.265093
2.187000,-0.279044
2.188000,-0.290723
2.189000,-0.292670
2.190000,-0.293319
2.191000,-0.303051
2.192000,-0.315704
2.193000,-0.328033
2.194000,-0.336792
2.195000,-0.341983
2.196000,-0.347498
2.197000,-0.353662
2.198000,-0.359502
2.199000,-0.362098
2.200000,-0.367613
2.201000,-0.376697
2.202000,-0.391945
2.203000,-0.403625
2.204000,-0.406869
2.205000,-0.404598
2.206000,-0.409789
2.207000,-0.417575
2.208000,-0.419846
2.209000,-0.415628
2.210000,-0.423739
2.211000,-0.439961
2.212000,-0.450991
2.213000,-0.448071
2.214000,-0.451640
2.215000,-0.458778
2.216000,-0.458129
2.217000,-0.453587
2.218000,-0.458453
2.219000,-0.471430
2.220000,-0.486678
2.221000,-0.496736
2.222000,-0.509389
2.223000,-0.523663
2.224000,-0.539885
2.225000,-0.565515
2.226000,-0.596336
2.227000,-0.621317
2.228000,-0.634294
2.229000,-0.649218
2.230000,-0.663168
2.231000,-0.672576
2.232000,-0.687825
2.233000,-0.707615
2.234000,-0.700153
2.235000,-0.692367
2.236000,-0.683607
2.237000,-0.645649
2.238000,-0.610286
2.239000,-0.573626
2.240000,-0.508091
2.241000,-0.444503
2.242000,-0.382212
2.243000,-0.314731
2.244000,-0.248872
2.245000,-0.194043
2.246000,-0.159005
2.247000,-0.122020
2.248000,-0.080168
2.249000,-0.046103
2.250000,-0.015931
2.251000,-0.004252
2.252000,-0.003603
2.253000,-0.001332
2.254000,0.000615
2.255000,-0.000683
2.256000,0.001263
2.257000,0.005481
2.258000,0.013592
2.259000,0.020080
2.260000,0.026569
2.261000,0.035329
2.262000,0.044088
2.263000,0.050577
2.264000,0.056416
2.265000,0.057714
2.266000,0.053172
2.267000,0.042142
2.268000,0.032733
2.269000,0.023649
2.270000,0.015214
2.271000,0.008076
2.272000,0.002237
2.273000,0.000615
2.274000,0.005805
2.275000,0.018458
2.276000,0.020729
2.277000,0.019756
2.278000,0.028191
2.279000,0.029164
2.280000,0.021702
2.281000,0.011645
2.282000,0.004183
2.283000,0.007752
2.284000,0.020405
2.285000,0.025271
2.286000,0.023325
2.287000,0.022676
2.288000,0.022351
2.289000,0.017485
2.290000,0.011970
2.291000,0.009050
2.292000,0.010023
2.293000,0.012618
2.294000,0.019756
2.295000,0.026893
2.296000,0.030462
2.297000,0.027218
2.298000,0.030462
2.299000,0.031111
2.300000,0.019431
2.301000,0.017809
2.302000,0.019431
2.303000,0.013592
2.304000,0.017160
2.305000,0.024622
2.306000,0.027218
2.307000,0.028191
2.308000,0.026569
2.309000,0.029164
2.310000,0.036626
2.311000,0.066149
2.312000,0.095672
2.313000,0.066798
2.314000,0.047008
2.315000,0.050901
2.316000,0.028516
2.317000,0.016836
2.318000,0.017485
2.319000,0.023973
2.320000,0.028191
2.321000,0.026893
2.322000,0.031760
2.323000,0.041493
2.324000,0.046359
2.325000,0.049928
2.326000,0.054145
2.327000,0.057714
2.328000,0.062581
2.329000,0.070043
2.330000,0.072638
2.331000,0.063554
2.332000,0.057714
2.333000,0.055119
2.334000,0.046684
2.335000,0.043764
2.336000,0.046684
2.337000,0.050252
2.338000,0.057714
2.339000,0.065825
2.340000,0.072962
2.341000,0.076856
2.342000,0.082371
2.343000,0.080424
2.344000,0.072638
2.345000,0.069394
2.346000,0.073287
2.347000,0.074260
2.348000,0.075233
2.349000,0.081073
2.350000,0.095348
2.351000,0.098268
2.352000,0.091130
2.353000,0.087886
2.354000,0.086264
2.355000,0.081722
2.356000,0.071989
2.357000,0.063554
2.358000,0.051874
2.359000,0.038248
2.360000,0.041168
2.361000,0.044088
2.362000,0.039871
2.363000,0.038248
2.364000,0.041817
2.365000,0.045061
2.366000,0.051874
2.367000,0.067447
2.368000,0.069394
2.369000,0.066149
2.370000,0.066474
2.371000,0.063878
2.372000,0.074585
2.373000,0.087562
2.374000,0.087886
2.375000,0.084966
2.376000,0.095348
2.377000,0.101837
2.378000,0.100539
2.379000,0.103459
2.380000,0.099890
2.381000,0.084966
2.382000,0.087886
2.383000,0.090482
2.384000,0.095348
2.385000,0.096321
2.386000,0.114489
2.387000,0.138822
2.388000,0.153745
2.389000,0.166723
2.390000,0.186837
2.391000,0.195272
2.392000,0.176780
2.393000,0.175158
2.394000,0.186188
2.395000,0.190406
2.396000,0.190730
2.397000,0.198517
2.398000,0.206627
2.399000,0.183917
2.400000,0.163478
2.401000,0.143688
2.402000,0.116112
2.403000,0.093401
2.404000,0.079127
2.405000,0.070043
2.406000,0.056092
2.407000,0.033058
2.408000,0.012294
2.409000,-0.006198
2.410000,-0.018202
2.411000,-0.018851
2.412000,-0.019825
2.413000,-0.016256
2.414000,-0.019500
2.415000,-0.036695
2.416000,-0.049996
2.417000,-0.043832
2.418000,-0.028260
2.419000,-0.011714
2.420000,-0.003279
2.421000,-0.009443
2.422000,-0.017553
2.423000,-0.021122
2.424000,-0.020473
2.425000,-0.016905
2.426000,0.000939
2.427000,0.023325
2.428000,0.020729
2.429000,0.006454
2.430000,0.003210
2.431000,0.008401
2.432000,0.011970
2.433000,0.006779
2.434000,0.013916
2.435000,0.038897
2.436000,0.041493
2.437000,0.013267
2.438000,0.001912
2.439000,0.003210
2.440000,0.000290
2.441000,0.007428
2.442000,0.012943
2.443000,0.005481
2.444000,0.004183
2.445000,0.012294
2.446000,0.014565
2.447000,0.011321
2.448000,0.006454
2.449000,-0.001332
2.450000,-0.006847
2.451000,-0.006523
2.452000,-0.003279
2.453000,0.000939
2.454000,0.012943
2.455000,0.021702
2.456000,0.022676
2.457000,0.015214
2.458000,0.005805
2.459000,0.004832
2.460000,0.007428
2.461000,0.004183
2.462000,-0.000683
2.463000,0.000290
2.464000,-0.003279
2.465000,-0.019500
2.466000,-0.046428
2.467000,-0.095741
2.468000,-0.165818
2.469000,-0.256334
2.470000,-0.391945
2.471000,-0.571030
2.472000,-0.769256
2.473000,-0.963589
2.474000,-1.118017
2.475000,-1.214697
2.476000,-1.259793
2.477000,-1.216644
2.478000,-1.066109
2.479000,-0.850688
2.480000,-0.576221
2.481000,-0.230704
2.482000,0.204356
2.483000,0.688081
2.484000,1.163696
2.485000,1.622765
2.486000,2.053934
2.487000,2.405942
2.488000,2.710583
2.489000,2.933143
2.490000,3.089194
2.491000,3.161218
2.492000,3.112878
2.493000,2.917894
2.494000,2.599627
2.495000,2.213554
2.496000,1.820019
2.497000,1.460874
2.498000,1.112112
2.499000,0.798063
2.500000,0.557985
2.501000,0.384091
2.502000,0.277678
2.503000,0.247181
2.504000,0.277029
2.505000,0.293899
2.506000,0.270865
2.507000,0.248479
2.508000,0.238097
2.509000,0.214414
2.510000,0.189108
2.511000,0.165425
2.512000,0.139795
2.513000,0.112218
2.514000,0.097295
2.515000,0.079127
2.516000,0.041817
2.517000,0.011970
2.518000,-3.429578E-5
2.519000,-0.004901
2.520000,-0.012363
2.521000,-0.025664
2.522000,-0.051294
2.523000,-0.068813
2.524000,-0.077573
2.525000,-0.080493
2.526000,-0.081791
2.527000,-0.092172
2.528000,-0.100607
2.529000,-0.110340
2.530000,-0.117153
2.531000,-0.116505
2.532000,-0.124940
2.533000,-0.149596
2.534000,-0.167764
2.535000,-0.160951
2.536000,-0.155436
2.537000,-0.156409
2.538000,-0.160302
2.539000,-0.163547
2.540000,-0.168738
2.541000,-0.166791
2.542000,-0.163547
2.543000,-0.164520
2.544000,-0.170684
2.545000,-0.176200
2.546000,-0.182364
2.547000,-0.190799
2.548000,-0.188528
2.549000,-0.194692
2.550000,-0.213833
2.551000,-0.222269
2.552000,-0.220646
2.553000,-0.235246
2.554000,-0.256658
2.555000,-0.258605
2.556000,-0.254063
2.557000,-0.249845
2.558000,-0.247898
2.559000,-0.248547
2.560000,-0.248872
2.561000,-0.247250
2.562000,-0.247250
2.563000,-0.250818
2.564000,-0.262173
2.565000,-0.268662
2.566000,-0.278070
2.567000,-0.294616
2.568000,-0.301429
2.569000,-0.294616
2.570000,-0.290074
2.571000,-0.297536
2.572000,-0.308891
2.573000,-0.308242
2.574000,-0.300132
2.575000,-0.307918
2.576000,-0.317326
2.577000,-0.327059
2.578000,-0.328681
2.579000,-0.322193
2.580000,-0.312460
2.581000,-0.305647
2.582000,-0.314082
2.583000,-0.330952
2.584000,-0.341983
2.585000,-0.338414
2.586000,-0.330628
2.587000,-0.328033
2.588000,-0.327384
2.589000,-0.327708
2.590000,-0.331601
2.591000,-0.337117
2.592000,-0.337441
2.593000,-0.347174
2.594000,-0.358529
2.595000,-0.370208
2.596000,-0.380266
2.597000,-0.391945
2.598000,-0.401029
2.599000,-0.409789
2.600000,-0.408815
2.601000,-0.399083
2.602000,-0.398758
2.603000,-0.426983
2.604000,-0.459426
2.605000,-0.478568
2.606000,-0.489923
2.607000,-0.499007
2.608000,-0.511984
2.609000,-0.522690
2.610000,-0.535992
2.611000,-0.548644
2.612000,-0.567786
2.613000,-0.585305
2.614000,-0.603797
2.615000,-0.623588
2.616000,-0.647920
2.617000,-0.668683
2.618000,-0.687500
2.619000,-0.720916
2.620000,-0.757577
2.621000,-0.778989
2.622000,-0.791642
2.623000,-0.801375
2.624000,-0.794237
2.625000,-0.772176
2.626000,-0.734218
2.627000,-0.685554
2.628000,-0.640782
2.629000,-0.584981
2.630000,-0.514579
2.631000,-0.445152
2.632000,-0.386754
2.633000,-0.335819
2.634000,-0.280341
2.635000,-0.229082
2.636000,-0.186257
2.637000,-0.151218
2.638000,-0.125264
2.639000,-0.103852
2.640000,-0.088279
2.641000,-0.086657
2.642000,-0.081791
2.643000,-0.064596
2.644000,-0.053241
2.645000,-0.037344
2.646000,-0.015931
2.647000,0.004183
2.648000,0.006454
2.649000,0.001263
2.650000,-0.007172
2.651000,-0.020149
2.652000,-0.034099
2.653000,-0.045130
2.654000,-0.048699
2.655000,-0.039615
2.656000,-0.029882
2.657000,-0.029882
2.658000,-0.022744
2.659000,-0.002630
2.660000,0.005805
2.661000,-0.003279
2.662000,-0.023069
2.663000,-0.048050
2.664000,-0.055836
2.665000,-0.061351
2.666000,-0.065569
2.667000,-0.056161
2.668000,-0.048374
2.669000,-0.043508
2.670000,-0.038317
2.671000,-0.043508
2.672000,-0.040912
2.673000,-0.025340
2.674000,-0.024367
2.675000,-0.026638
2.676000,-0.021122
2.677000,-0.018851
2.678000,-0.019500
2.679000,-0.012363
2.680000,-0.003279
2.681000,0.002237
2.682000,0.000615
2.683000,-0.005550
2.684000,-0.008794
2.685000,-0.008469
2.686000,-0.000359
2.687000,0.002237
2.688000,-0.001981
2.689000,-0.007496
2.690000,-0.002305
2.691000,0.006454
2.692000,0.008725
2.693000,0.013592
2.694000,0.023973
2.695000,0.023973
2.696000,0.018783
2.697000,0.010996
2.698000,-0.004576
2.699000,-0.017878
2.700000,-0.021122
2.701000,-0.013985
2.702000,-0.008145
2.703000,-0.003279
2.704000,-0.003279
2.705000,0.000615
2.706000,0.004832
2.707000,-0.001981
2.708000,-0.005550
2.709000,0.006454
2.710000,0.023325
2.711000,0.028840
2.712000,0.029164
2.713000,0.023325
2.714000,-0.001656
2.715000,-0.021122
2.716000,-0.022096
2.717000,-0.002305
2.718000,0.025920
2.719000,0.018458
2.720000,-0.010092
2.721000,-0.023718
2.722000,-0.036370
2.723000,-0.041237
2.724000,-0.036370
2.725000,-0.022744
2.726000,-0.007821
2.727000,-0.020149
2.728000,-0.025664
2.729000,-0.037668
2.730000,-0.044157
2.731000,-0.046752
2.732000,-0.053241
2.733000,-0.056809
2.734000,-0.043832
2.735000,-0.022744
2.736000,-0.020149
2.737000,-0.024691
2.738000,-0.024042
2.739000,-0.024042
2.740000,-0.028260
2.741000,-0.039290
2.742000,-0.043508
2.743000,-0.043508
2.744000,-0.040912
2.745000,-0.041886
2.746000,-0.047077
2.747000,-0.046752
2.748000,-0.037344
2.749000,-0.019825
2.750000,-0.003279
2.751000,0.003859
2.752000,-0.000683
2.753000,0.003534
2.754000,0.010672
2.755000,0.021702
2.756000,0.025596
2.757000,0.034031
2.758000,0.039222
2.759000,0.038897
2.760000,0.046684
2.761000,0.055768
2.762000,0.068420
2.763000,0.081073
2.764000,0.096321
2.765000,0.095997
2.766000,0.091130
2.767000,0.115463
2.768000,0.143039
2.769000,0.170291
2.770000,0.201761
2.771000,0.229013
2.772000,0.248479
2.773000,0.261456
2.774000,0.287410
2.775000,0.305578
2.776000,0.294223
2.777000,0.297143
2.778000,0.302010
2.779000,0.286437
2.780000,0.282220
2.781000,0.262105
2.782000,0.238422
2.783000,0.210845
2.784000,0.186837
2.785000,0.173211
2.786000,0.148554
2.787000,0.127467
2.788000,0.114165
2.789000,0.104756
2.790000,0.085615
2.791000,0.057065
2.792000,0.030787
2.793000,0.026569
2.794000,0.038897
2.795000,0.054145
2.796000,0.080749
2.797000,0.094375
2.798000,0.073611
2.799000,0.054794
2.800000,0.052523
2.801000,0.047981
2.802000,0.047981
2.803000,0.049279
2.804000,0.051550
2.805000,0.060310
2.806000,0.068096
2.807000,0.072314
2.808000,0.071989
2.809000,0.072314
2.810000,0.060310
2.811000,0.064203
2.812000,0.070367
2.813000,0.068745
2.814000,0.064852
2.815000,0.059661
2.816000,0.056741
2.817000,0.059012
2.818000,0.062256
2.819000,0.064852
2.820000,0.078478
2.821000,0.090482
2.822000,0.103783
2.823000,0.107676
2.824000,0.103134
2.825000,0.097943
2.826000,0.095348
2.827000,0.074909
2.828000,0.044413
2.829000,0.025920
2.830000,0.013267
2.831000,0.015214
2.832000,0.025271
2.833000,0.045386
2.834000,0.044088
2.835000,0.036951
2.836000,0.035004
2.837000,0.034680
2.838000,0.029489
2.839000,0.030462
2.840000,0.031435
2.841000,0.030138
2.842000,0.034355
2.843000,0.047332
2.844000,0.058039
2.845000,0.056416
2.846000,0.059012
2.847000,0.070691
2.848000,0.074260
2.849000,0.067771
2.850000,0.056416
2.851000,0.026245
2.852000,-0.048699
2.853000,-0.161276
2.854000,-0.323815
2.855000,-0.505495
2.856000,-0.682309
2.857000,-0.864314
2.858000,-1.024906
2.859000,-1.124182
2.860000,-1.164086
2.861000,-1.108609
2.862000,-0.940879
2.863000,-0.699828
2.864000,-0.399731
2.865000,-0.045454
2.866000,0.399988
2.867000,0.891824
2.868000,1.356083
2.869000,1.788874
2.870000,2.196035
2.871000,2.548367
2.872000,2.857550
2.873000,3.078813
2.874000,3.234540
2.875000,3.295857
2.876000,3.229998
2.877000,3.029499
2.878000,2.708312
2.879000,2.324834
2.880000,1.927081
2.881000,1.554310
2.882000,1.204899
2.883000,0.887606
2.884000,0.654016
2.885000,0.491801
2.886000,0.396094
2.887000,0.367220
2.888000,0.369167
2.889000,0.375331
2.890000,0.381171
2.891000,0.375006
2.892000,0.343861
2.893000,0.302334
2.894000,0.270865
2.895000,0.245235
2.896000,0.221227
2.897000,0.198192
2.898000,0.169642
2.899000,0.144337
2.900000,0.125520
2.901000,0.107027
2.902000,0.087886
2.903000,0.077504
2.904000,0.070043
2.905000,0.059661
2.906000,0.047981
2.907000,0.038248
2.908000,0.028516
2.909000,0.017485
2.910000,0.002561
2.911000,-0.011389
2.912000,-0.026313
2.913000,-0.040588
2.914000,-0.039290
2.915000,-0.029882
2.916000,-0.036046
2.917000,-0.043508
2.918000,-0.040588
2.919000,-0.030531
2.920000,-0.035397
2.921000,-0.032477
2.922000,-0.022096
2.923000,-0.019500
2.924000,0.004508
2.925000,-0.007172
2.926000,-0.038317
2.927000,-0.056161
2.928000,-0.068813
2.929000,-0.062974
2.930000,-0.052592
2.931000,-0.038966
2.932000,-0.043832
2.933000,-0.050645
2.934000,-0.053565
2.935000,-0.055512
2.936000,-0.063622
2.937000,-0.056485
2.938000,-0.031180
2.939000,0.006779
2.940000,0.021378
2.941000,0.002886
2.942000,-0.019825
2.943000,-0.035722
2.944000,-0.048374
2.945000,-0.060703
2.946000,-0.070760
2.947000,-0.079844
2.948000,-0.086333
2.949000,-0.094119
2.950000,-0.094443
2.951000,-0.095417
2.952000,-0.100607
2.953000,-0.092821
2.954000,-0.074653
2.955000,-0.068165
2.956000,-0.086333
2.957000,-0.088928
2.958000,-0.092821
2.959000,-0.093470
2.960000,-0.093794
2.961000,-0.105149
2.962000,-0.117478
2.963000,-0.123966
2.964000,-0.133699
2.965000,-0.134997
2.966000,-0.129482
2.967000,-0.130455
2.968000,-0.146028
2.969000,-0.165818
2.970000,-0.184310
2.971000,-0.195665
2.972000,-0.205723
2.973000,-0.216429
2.974000,-0.231353
2.975000,-0.240761
2.976000,-0.243032
2.977000,-0.235895
2.978000,-0.230379
2.979000,-0.227784
2.980000,-0.224864
2.981000,-0.228108
2.982000,-0.231677
2.983000,-0.222917
2.984000,-0.226162
2.985000,-0.250818
2.986000,-0.270933
2.987000,-0.290074
2.988000,-0.305971
2.989000,-0.314731
2.990000,-0.311487
2.991000,-0.310838
2.992000,-0.322517
2.993000,-0.326086
2.994000,-0.328357
2.995000,-0.339388
2.996000,-0.362746
2.997000,-0.380266
2.998000,-0.388052
2.999000,-0.402976
3.000000,-0.418873
3.001000,-0.441907
3.002000,-0.477919
3.003000,-0.511335
3.004000,-0.534694
3.005000,-0.554160
3.006000,-0.569732
3.007000,-0.574923
3.008000,-0.564866
3.009000,-0.537289
3.010000,-0.496411
3.011000,-0.450018
3.012000,-0.394865
3.013000,-0.331277
3.014000,-0.258280
3.015000,-0.183661
3.016000,-0.113260
3.017000,-0.064271
3.018000,-0.018851
3.019000,0.023649
3.020000,0.069718
3.021000,0.107676
3.022000,0.136875
3.023000,0.166723
3.024000,0.182944
3.025000,0.192028
3.026000,0.198517
3.027000,0.206303
3.028000,0.222200
3.029000,0.227066
3.030000,0.221227
3.031000,0.230311
3.032000,0.245235
3.033000,0.250101
3.034000,0.250425
3.035000,0.251074
3.036000,0.263403
3.037000,0.270540
3.038000,0.259509
3.039000,0.244910
3.040000,0.251074
3.041000,0.283193
3.042000,0.302010
3.043000,0.282868
3.044000,0.260158
3.045000,0.251723
3.046000,0.259834
3.047000,0.238746
3.048000,0.219280
3.049000,0.217009
3.050000,0.217982
3.051000,0.223822
3.052000,0.233555
3.053000,0.234204
3.054000,0.237448
3.055000,0.245883
3.056000,0.261456
3.057000,0.276704
3.058000,0.283193
3.059000,0.272487
3.060000,0.265674
3.061000,0.265674
3.062000,0.272811
3.063000,0.263727
3.064000,0.247506
3.065000,0.261456
3.066000,0.276055
3.067000,0.278002
3.068000,0.280922
3.069000,0.276055
3.070000,0.283517
3.071000,0.300388
3.072000,0.284815
3.073000,0.255616
3.074000,0.243937
3.075000,0.243937
3.076000,0.242639
3.077000,0.245235
3.078000,0.256265
3.079000,0.267620
3.080000,0.266647
3.081000,0.258212
3.082000,0.241341
3.083000,0.228689
3.084000,0.226418
3.085000,0.230635
3.086000,0.233880
3.087000,0.242964
3.088000,0.247181
3.089000,0.239395
3.090000,0.241990
3.091000,0.249452
3.092000,0.255616
3.093000,0.265998
3.094000,0.265349
3.095000,0.264376
3.096000,0.271838
3.097000,0.279624
3.098000,0.292601
3.099000,0.300712
3.100000,0.300388
3.101000,0.300712
3.102000,0.288708
3.103000,0.278002
3.104000,0.284815
3.105000,0.289681
3.106000,0.309472
3.107000,0.340617
3.108000,0.330560
3.109000,0.298117
3.110000,0.281571
3.111000,0.283842
3.112000,0.282868
3.113000,0.286437
3.114000,0.296494
3.115000,0.304281
3.116000,0.320502
3.117000,0.328613
3.118000,0.330235
3.119000,0.342239
3.120000,0.350999
3.121000,0.344186
3.122000,0.331857
3.123000,0.321800
3.124000,0.325693
3.125000,0.324071
3.126000,0.308823
3.127000,0.299090
3.128000,0.295846
3.129000,0.299090
3.130000,0.309472
3.131000,0.305254
3.132000,0.296494
3.133000,0.300388
3.134000,0.311743
3.135000,0.314014
3.136000,0.317907
3.137000,0.326342
3.138000,0.339968
3.139000,0.358136
3.140000,0.367220
3.141000,0.363651
3.142000,0.350350
3.143000,0.339319
3.144000,0.328289
3.145000,0.320827
3.146000,0.322124
3.147000,0.319205
3.148000,0.317907
3.149000,0.323747
3.150000,0.337373
3.151000,0.349701
3.152000,0.363327
3.153000,0.371438
3.154000,0.375655
3.155000,0.366247
3.156000,0.350025
3.157000,0.348079
3.158000,0.352945
3.159000,0.354892
3.160000,0.339968
3.161000,0.324395
3.162000,0.327640
3.163000,0.339644
3.164000,0.337697
3.165000,0.338021
3.166000,0.339968
3.167000,0.338670
3.168000,0.337048
3.169000,0.338346
3.170000,0.343212
3.171000,0.339968
3.172000,0.339319
3.173000,0.344186
3.174000,0.368842
3.175000,0.390579
3.176000,0.387335
3.177000,0.380197
3.178000,0.377602
3.179000,0.378251
3.180000,0.388633
3.181000,0.383766
3.182000,0.361056
3.183000,0.354892
3.184000,0.345159
3.185000,0.345483
3.186000,0.375980
3.187000,0.411343
3.188000,0.435350
3.189000,0.453843
3.190000,0.472011
3.191000,0.476877
3.192000,0.475904
3.193000,0.469416
3.194000,0.478824
3.195000,0.502832
3.196000,0.534626
3.197000,0.561229
3.198000,0.584588
3.199000,0.601459
3.200000,0.607298
3.201000,0.596592
3.202000,0.580371
3.203000,0.579397
3.204000,0.591077
3.205000,0.598863
3.206000,0.591726
3.207000,0.575504
3.208000,0.562851
3.209000,0.541763
3.210000,0.517756
3.211000,0.491152
3.212000,0.466820
3.213000,0.464549
3.214000,0.460332
3.215000,0.443461
3.216000,0.405827
3.217000,0.375006
3.218000,0.373060
3.219000,0.378251
3.220000,0.381495
3.221000,0.383117
3.222000,0.389281
3.223000,0.386362
3.224000,0.376304
3.225000,0.371438
3.226000,0.370140
3.227000,0.366896
3.228000,0.366896
3.229000,0.376304
3.230000,0.395770
3.231000,0.409072
3.232000,0.388633
3.233000,0.372411
3.234000,0.374682
3.235000,0.370464
3.236000,0.368193
3.237000,0.360732
3.238000,0.356838
3.239000,0.352945
3.240000,0.350025
3.241000,0.355541
3.242000,0.361380
3.243000,0.368193
3.244000,0.381495
3.245000,0.388633
3.246000,0.391552
3.247000,0.381171
3.248000,0.386686
3.249000,0.405827
3.250000,0.426266
3.251000,0.416534
3.252000,0.401934
3.253000,0.395446
3.254000,0.381171
3.255000,0.370140
3.256000,0.363976
3.257000,0.358785
3.258000,0.355216
3.259000,0.355541
3.260000,0.374358
3.261000,0.399014
3.262000,0.433404
3.263000,0.451572
3.264000,0.443786
3.265000,0.424644
3.266000,0.412640
3.267000,0.407125
3.268000,0.399339
3.269000,0.396743
3.270000,0.406476
3.271000,0.421076
3.272000,0.484339
3.273000,0.549874
3.274000,0.580046
3.275000,0.570962
3.276000,0.555390
3.277000,0.550199
3.278000,0.554416
3.279000,0.554092
3.280000,0.544034
3.281000,0.535599
3.282000,0.532031
3.283000,0.530084
3.284000,0.521324
3.285000,0.466820
3.286000,0.364625
3.287000,0.233555
3.288000,0.062581
3.289000,-0.126237
3.290000,-0.316677
3.291000,-0.503873
3.292000,-0.653435
3.293000,-0.722538
3.294000,-0.720592
3.295000,-0.606068
3.296000,-0.415628
3.297000,-0.186257
3.298000,0.077180
3.299000,0.389930
3.300000,0.787033
3.301000,1.206197
3.302000,1.633147
3.303000,2.050041
3.304000,2.417297
3.305000,2.758923
3.306000,3.051236
3.307000,3.244922
3.308000,3.375668
3.309000,3.415573
3.310000,3.337060
3.311000,3.129099
3.312000,2.831271
3.313000,2.496134
3.314000,2.140557
3.315000,1.815477
3.316000,1.524138
3.317000,1.233124
3.318000,1.010241
3.319000,0.852567
3.320000,0.746154
3.321000,0.697490
3.322000,0.681917
3.323000,0.679971
3.324000,0.680295
3.325000,0.686784
3.326000,0.677051
3.327000,0.660505
3.328000,0.645905
3.329000,0.619951
3.330000,0.586210
3.331000,0.552794
3.332000,0.520676
3.333000,0.494721
3.334000,0.467145
3.335000,0.441515
3.336000,0.414587
3.337000,0.392201
3.338000,0.381495
3.339000,0.380522
3.340000,0.375980
3.341000,0.369491
3.342000,0.371113
3.343000,0.382144
3.344000,0.378575
3.345000,0.356190
3.346000,0.343537
3.347000,0.327640
3.348000,0.313689
3.349000,0.304930
3.350000,0.301685
3.351000,0.300388
3.352000,0.302659
3.353000,0.306552
3.354000,0.310769
3.355000,0.323747
3.356000,0.319853
3.357000,0.307525
3.358000,0.297143
3.359000,0.278651
3.360000,0.263403
3.361000,0.263403
3.362000,0.269891
3.363000,0.294223
3.364000,0.316609
3.365000,0.308174
3.366000,0.286113
3.367000,0.272811
3.368000,0.280273
3.369000,0.283517
3.370000,0.256914
3.371000,0.229337
3.372000,0.214414
3.373000,0.211494
3.374000,0.200463
3.375000,0.188135
3.376000,0.198841
3.377000,0.217982
3.378000,0.229986
3.379000,0.233555
3.380000,0.234204
3.381000,0.239395
3.382000,0.244586
3.383000,0.250101
3.384000,0.243937
3.385000,0.228364
3.386000,0.213440
3.387000,0.215387
3.388000,0.211494
3.389000,0.186513
3.390000,0.172238
3.391000,0.163478
3.392000,0.148554
3.393000,0.121951
3.394000,0.099241
3.395000,0.094699
3.396000,0.093726
3.397000,0.091779
3.398000,0.090157
3.399000,0.077180
3.400000,0.060310
3.401000,0.047981
3.402000,0.047657
3.403000,0.050252
3.404000,0.050901
3.405000,0.055119
3.406000,0.061283
3.407000,0.068420
3.408000,0.080424
3.409000,0.076531
3.410000,0.069069
3.411000,0.061607
3.412000,0.043439
3.413000,0.021054
3.414000,0.009699
3.415000,0.000615
3.416000,-0.001332
3.417000,0.000615
3.418000,0.000615
3.419000,0.009050
3.420000,0.028516
3.421000,0.025920
3.422000,0.021378
3.423000,0.022027
3.424000,0.023325
3.425000,0.014565
3.426000,0.020080
3.427000,0.021702
3.428000,0.000939
3.429000,-0.019825
3.430000,-0.038641
3.431000,-0.054863
3.432000,-0.067191
3.433000,-0.089901
3.434000,-0.112936
3.435000,-0.121371
3.436000,-0.157058
3.437000,-0.196314
3.438000,-0.219998
3.439000,-0.244654
3.440000,-0.267689
3.441000,-0.279693
3.442000,-0.280341
3.443000,-0.282288
3.444000,-0.256658
3.445000,-0.228757
3.446000,-0.204100
3.447000,-0.165493
3.448000,-0.123318
3.449000,-0.074978
3.450000,-0.021447
3.451000,0.044088
3.452000,0.114814
3.453000,0.187486
3.454000,0.238746
3.455000,0.267945
3.456000,0.291304
3.457000,0.311418
3.458000,0.331533
3.459000,0.357812
3.460000,0.394797
3.461000,0.425293
3.462000,0.437297
3.463000,0.441515
3.464000,0.441190
3.465000,0.449301
3.466000,0.463576
3.467000,0.457412
3.468000,0.426915
3.469000,0.397717
3.470000,0.394472
3.471000,0.399014
3.472000,0.407774
3.473000,0.415885
3.474000,0.422049
3.475000,0.437946
3.476000,0.455141
3.477000,0.474931
3.478000,0.475904
3.479000,0.448003
3.480000,0.425942
3.481000,0.418156
3.482000,0.418156
3.483000,0.410045
3.484000,0.412316
3.485000,0.422698
3.486000,0.424320
3.487000,0.407449
3.488000,0.393823
3.489000,0.395121
3.490000,0.391877
3.491000,0.386362
3.492000,0.399339
3.493000,0.412965
3.494000,0.418156
3.495000,0.415236
3.496000,0.411343
3.497000,0.409072
3.498000,0.409396
3.499000,0.425618
3.500000,0.419778
3.501000,0.402259
3.502000,0.395121
3.503000,0.384091
3.504000,0.391228
3.505000,0.401610
3.506000,0.406152
3.507000,0.416858
3.508000,0.429186
3.509000,0.443137
3.510000,0.455790
3.511000,0.458385
3.512000,0.441515
3.513000,0.433728
3.514000,0.442488
3.515000,0.449625
3.516000,0.452221
3.517000,0.458061
3.518000,0.466171
3.519000,0.460980
3.520000,0.462603
3.521000,0.462927
3.522000,0.441839
3.523000,0.421400
3.524000,0.421400
3.525000,0.427240
3.526000,0.441839
3.527000,0.449950
3.528000,0.449950
3.529000,0.457412
3.530000,0.470713
3.531000,0.472011
3.532000,0.461305
3.533000,0.454492
3.534000,0.444759
3.535000,0.435350
3.536000,0.430160
3.537000,0.449301
3.538000,0.478500
3.539000,0.479148
3.540000,0.469740
3.541000,0.465522
3.542000,0.463251
3.543000,0.448652
3.544000,0.446381
3.545000,0.449625
3.546000,0.450923
3.547000,0.458385
3.548000,0.469416
3.549000,0.463900
3.550000,0.457736
3.551000,0.456763
3.552000,0.450274
3.553000,0.437946
3.554000,0.434702
3.555000,0.441515
3.556000,0.451248
3.557000,0.466820
3.558000,0.479148
3.559000,0.492126
3.560000,0.489206
3.561000,0.459358
3.562000,0.441839
3.563000,0.439244
3.564000,0.443461
3.565000,0.455465
3.566000,0.462603
3.567000,0.472660
3.568000,0.489206
3.569000,0.488557
3.570000,0.483366
3.571000,0.483042
3.572000,0.482717
3.573000,0.476229
3.574000,0.474931
3.575000,0.470713
3.576000,0.474282
3.577000,0.479797
3.578000,0.483691
3.579000,0.488881
3.580000,0.493748
3.581000,0.505427
3.582000,0.502832
3.583000,0.493748
3.584000,0.494072
3.585000,0.509320
3.586000,0.530733
3.587000,0.528786
3.588000,0.505752
3.589000,0.482393
3.590000,0.476553
3.591000,0.484988
3.592000,0.489206
3.593000,0.502507
3.594000,0.501859
3.595000,0.496343
3.596000,0.487908
3.597000,0.488557
3.598000,0.509320
3.599000,0.521000
3.600000,0.515809
3.601000,0.505103
3.602000,0.501210
3.603000,0.525218
3.604000,0.550523
3.605000,0.564149
3.606000,0.575829
3.607000,0.577451
3.608000,0.574206
3.609000,0.578100
3.610000,0.576153
3.611000,0.584264
3.612000,0.586535
3.613000,0.583939
3.614000,0.590752
3.615000,0.586210
3.616000,0.571935
3.617000,0.563176
3.618000,0.561878
3.619000,0.569016
3.620000,0.571287
3.621000,0.564474
3.622000,0.571287
3.623000,0.580371
3.624000,0.574206
3.625000,0.573233
3.626000,0.576153
3.627000,0.576477
3.628000,0.574206
3.629000,0.577451
3.630000,0.570313
3.631000,0.557012
3.632000,0.559283
3.633000,0.563176
3.634000,0.562527
3.635000,0.565447
3.636000,0.581993
3.637000,0.597565
3.638000,0.588481
3.639000,0.580046
3.640000,0.572909
3.641000,0.553443
3.642000,0.531382
3.643000,0.514187
3.644000,0.512565
3.645000,0.523595
3.646000,0.544683
3.647000,0.564149
3.648000,0.568042
3.649000,0.558634
3.650000,0.545332
3.651000,0.543386
3.652000,0.550199
3.653000,0.550523
3.654000,0.544359
3.655000,0.534302
3.656000,0.534626
3.657000,0.547928
3.658000,0.564798
3.659000,0.573882
3.660000,0.572909
3.661000,0.569016
3.662000,0.569340
3.663000,0.570313
3.664000,0.576802
3.665000,0.579073
3.666000,0.561229
3.667000,0.552145
3.668000,0.565447
3.669000,0.576153
3.670000,0.552794
3.671000,0.547603
3.672000,0.555390
3.673000,0.547603
3.674000,0.543710
3.675000,0.537221
3.676000,0.535275
3.677000,0.533328
3.678000,0.527489
3.679000,0.523920
3.680000,0.521000
3.681000,0.509969
3.682000,0.502832
3.683000,0.506401
3.684000,0.511267
3.685000,0.509645
3.686000,0.508672
3.687000,0.507374
3.688000,0.508672
3.689000,0.526191
3.690000,0.528137
3.691000,0.520027
3.692000,0.524569
3.693000,0.535599
3.694000,0.544359
3.695000,0.550199
3.696000,0.561229
3.697000,0.570638
3.698000,0.585237
3.699000,0.599512
3.700000,0.620600
3.701000,0.640715
3.702000,0.656287
3.703000,0.665047
3.704000,0.662776
3.705000,0.664722
3.706000,0.670238
3.707000,0.672184
3.708000,0.672833
3.709000,0.679971
3.710000,0.676077
3.711000,0.638119
3.712000,0.596917
3.713000,0.577775
3.714000,0.572584
3.715000,0.548901
3.716000,0.517107
3.717000,0.510943
3.718000,0.500561
3.719000,0.465847
3.720000,0.450923
3.721000,0.455790
3.722000,0.460656
3.723000,0.464874
3.724000,0.463576
3.725000,0.467793
3.726000,0.472660
3.727000,0.473633
3.728000,0.472984
3.729000,0.478175
3.730000,0.475255
3.731000,0.467469
3.732000,0.455790
3.733000,0.440866
3.734000,0.428862
3.735000,0.428537
3.736000,0.426915
3.737000,0.422698
3.738000,0.435026
3.739000,0.449301
3.740000,0.451572
3.741000,0.428213
3.742000,0.412316
3.743000,0.412965
3.744000,0.429835
3.745000,0.439892
3.746000,0.438919
3.747000,0.435999
3.748000,0.434053
3.749000,0.433079
3.750000,0.422049
3.751000,0.424969
3.752000,0.439892
3.753000,0.439892
3.754000,0.432431
3.755000,0.441190
3.756000,0.454167
3.757000,0.456438
3.758000,0.445083
3.759000,0.446057
3.760000,0.439568
3.761000,0.428213
3.762000,0.420102
3.763000,0.411018
3.764000,0.406152
3.765000,0.406476
3.766000,0.401285
3.767000,0.382144
3.768000,0.378575
3.769000,0.386037
3.770000,0.389930
3.771000,0.389606
3.772000,0.387335
3.773000,0.395770
3.774000,0.403556
3.775000,0.407449
3.776000,0.418480
3.777000,0.426591
3.778000,0.426266
3.779000,0.435999
3.780000,0.454167
3.781000,0.459358
3.782000,0.461629
3.783000,0.468442
3.784000,0.465847
3.785000,0.451248
3.786000,0.432431
3.787000,0.418480
3.788000,0.412965
3.789000,0.392526
3.790000,0.345483
3.791000,0.288384
3.792000,0.221876
3.793000,0.107676
3.794000,-0.053890
3.795000,-0.227459
3.796000,-0.410113
3.797000,-0.578168
3.798000,-0.708912
3.799000,-0.769905
3.800000,-0.777691
3.801000,-0.685878
3.802000,-0.517824
3.803000,-0.284235
3.804000,0.010023
3.805000,0.384091
3.806000,0.831804
3.807000,1.287629
3.808000,1.736316
3.809000,2.178840
3.810000,2.563615
3.811000,2.897131
3.812000,3.157974
3.813000,3.332194
3.814000,3.424332
3.815000,3.399027
3.816000,3.250437
3.817000,2.989594
3.818000,2.642452
3.819000,2.275845
3.820000,1.910211
3.821000,1.548146
3.822000,1.199059
3.823000,0.941786
3.824000,0.754590
3.825000,0.622547
3.826000,0.561229
3.827000,0.547603
3.828000,0.562527
3.829000,0.585562
3.830000,0.586535
3.831000,0.568691
3.832000,0.556687
3.833000,0.529435
3.834000,0.488233
3.835000,0.448976
3.836000,0.417182
3.837000,0.373709
3.838000,0.333804
3.839000,0.296494
3.840000,0.282868
3.841000,0.278651
3.842000,0.264051
3.843000,0.242639
3.844000,0.225120
3.845000,0.212467
3.846000,0.201761
3.847000,0.197543
3.848000,0.192028
3.849000,0.186513
3.850000,0.180997
3.851000,0.172562
3.852000,0.167696
3.853000,0.163154
3.854000,0.164127
3.855000,0.163803
3.856000,0.158287
3.857000,0.153097
3.858000,0.156341
3.859000,0.159585
3.860000,0.159261
3.861000,0.157963
3.862000,0.159585
3.863000,0.163154
3.864000,0.168994
3.865000,0.172887
3.866000,0.179700
3.867000,0.190081
3.868000,0.191055
3.869000,0.190730
3.870000,0.189757
3.871000,0.187810
3.872000,0.177104
3.873000,0.174184
3.874000,0.166398
3.875000,0.145635
3.876000,0.133306
3.877000,0.119356
3.878000,0.122925
3.879000,0.129738
3.880000,0.116436
3.881000,0.100863
3.882000,0.079127
3.883000,0.066798
3.884000,0.066798
3.885000,0.068096
3.886000,0.047657
3.887000,0.027542
3.888000,0.017809
3.889000,0.013592
3.890000,-0.001332
3.891000,-0.025664
3.892000,-0.030531
3.893000,-0.029233
3.894000,-0.038966
3.895000,-0.053565
3.896000,-0.053890
3.897000,-0.049996
3.898000,-0.050321
3.899000,-0.043508
3.900000,-0.043183
3.901000,-0.040264
3.902000,-0.037344
3.903000,-0.044157
3.904000,-0.068813
3.905000,-0.081791
3.906000,-0.059729
3.907000,-0.038966
3.908000,-0.037344
3.909000,-0.046428
3.910000,-0.061027
3.911000,-0.076924
3.912000,-0.083737
3.913000,-0.099310
3.914000,-0.114882
3.915000,-0.122669
3.916000,-0.126562
3.917000,-0.139539
3.918000,-0.151218
3.919000,-0.158031
3.920000,-0.163871
3.921000,-0.166791
3.922000,-0.163547
3.923000,-0.164845
3.924000,-0.171009
3.925000,-0.175551
3.926000,-0.182688
3.927000,-0.192421
3.928000,-0.205074
3.929000,-0.207994
3.930000,-0.211238
3.931000,-0.219024
3.932000,-0.231677
3.933000,-0.242708
3.934000,-0.249196
3.935000,-0.256658
3.936000,-0.256982
3.937000,-0.253089
3.938000,-0.271906
3.939000,-0.299158
3.940000,-0.318300
3.941000,-0.342632
3.942000,-0.372804
3.943000,-0.388376
3.944000,-0.413357
3.945000,-0.453587
3.946000,-0.477594
3.947000,-0.504198
3.948000,-0.527557
3.949000,-0.516850
3.950000,-0.481488
3.951000,-0.453911
3.952000,-0.438014
3.953000,-0.441907
3.954000,-0.444827
3.955000,-0.417575
3.956000,-0.347174
3.957000,-0.268338
3.958000,-0.188203
3.959000,-0.122669
3.960000,-0.085359
3.961000,-0.045454
3.962000,0.005157
3.963000,0.048630
3.964000,0.082695
3.965000,0.108001
3.966000,0.138173
3.967000,0.167047
3.968000,0.194948
3.969000,0.214089
3.970000,0.217982
3.971000,0.227715
3.972000,0.236151
3.973000,0.235502
3.974000,0.236799
3.975000,0.235826
3.976000,0.231933
3.977000,0.237448
3.978000,0.247181
3.979000,0.254643
3.980000,0.254967
3.981000,0.255616
3.982000,0.251723
3.983000,0.259509
3.984000,0.271838
3.985000,0.281571
3.986000,0.282868
3.987000,0.273784
3.988000,0.282220
3.989000,0.280273
3.990000,0.264700
3.991000,0.257563
3.992000,0.257563
3.993000,0.254967
3.994000,0.262429
3.995000,0.266647
3.996000,0.251074
3.997000,0.241017
3.998000,0.245235
3.999000,0.257887
4.000000,0.268918
4.001000,0.282220
4.002000,0.301685
4.003000,0.306876
4.004000,0.284166
4.005000,0.278326
4.006000,0.305254
4.007000,0.331533
4.008000,0.326342
4.009000,0.328937
4.010000,0.325044
4.011000,0.317907
4.012000,0.305254
4.013000,0.297792
4.014000,0.302659
4.015000,0.287410
4.016000,0.266971
4.017000,0.254643
4.018000,0.252048
4.019000,0.250101
4.020000,0.250425
4.021000,0.262105
4.022000,0.271513
4.023000,0.281246
4.024000,0.289357
4.025000,0.281895
4.026000,0.272487
4.027000,0.262754
4.028000,0.257238
4.029000,0.257238
4.030000,0.260483
4.031000,0.262754
4.032000,0.269567
4.033000,0.278326
4.034000,0.276704
4.035000,0.276704
4.036000,0.274433
4.037000,0.271513
4.038000,0.271513
4.039000,0.271189
4.040000,0.271838
4.041000,0.275731
4.042000,0.283193
4.043000,0.290006
4.044000,0.293250
4.045000,0.289357
4.046000,0.278975
4.047000,0.263403
4.048000,0.257238
4.049000,0.252048
4.050000,0.249452
4.051000,0.248803
4.052000,0.235502
4.053000,0.247830
4.054000,0.269242
4.055000,0.255941
4.056000,0.219605
4.057000,0.206627
4.058000,0.208898
4.059000,0.207601
4.060000,0.201761
4.061000,0.205979
4.062000,0.217334
4.063000,0.226742
4.064000,0.225769
4.065000,0.227066
4.066000,0.231284
4.067000,0.234853
4.068000,0.238746
4.069000,0.253021
4.070000,0.250750
4.071000,0.232906
4.072000,0.220578
4.073000,0.234204
4.074000,0.249777
4.075000,0.252372
4.076000,0.238422
4.077000,0.214089
4.078000,0.193326
4.079000,0.185539
4.080000,0.187486
4.081000,0.183917
4.082000,0.177753
4.083000,0.177753
4.084000,0.179051
4.085000,0.176455
4.086000,0.176131
4.087000,0.180349
4.088000,0.189757
4.089000,0.192353
4.090000,0.190730
4.091000,0.196895
4.092000,0.214414
4.093000,0.217334
4.094000,0.218307
4.095000,0.219929
4.096000,0.216360
4.097000,0.200139
4.098000,0.189433
4.099000,0.190406
4.100000,0.187810
4.101000,0.183593
4.102000,0.184242
4.103000,0.189757
4.104000,0.190081
4.105000,0.188784
4.106000,0.187162
4.107000,0.204356
4.108000,0.217334
4.109000,0.223822
4.110000,0.235177
4.111000,0.234204
4.112000,0.222849
4.113000,0.222524
4.114000,0.231609
4.115000,0.232582
4.116000,0.235502
4.117000,0.243937
4.118000,0.234204
4.119000,0.219929
4.120000,0.212143
4.121000,0.208898
4.122000,0.203383
4.123000,0.208574
4.124000,0.225769
4.125000,0.240044
4.126000,0.247181
4.127000,0.255292
4.128000,0.252372
4.129000,0.247181
4.130000,0.254967
4.131000,0.282220
4.132000,0.302659
4.133000,0.307850
4.134000,0.308498
4.135000,0.318556
4.136000,0.319529
4.137000,0.319205
4.138000,0.328289
4.139000,0.329586
4.140000,0.333479
4.141000,0.342888
4.142000,0.346132
4.143000,0.334128
4.144000,0.329586
4.145000,0.340941
4.146000,0.369816
4.147000,0.384415
4.148000,0.386037
4.149000,0.404854
4.150000,0.423022
4.151000,0.438919
4.152000,0.447030
4.153000,0.450274
4.154000,0.442812
4.155000,0.431457
4.156000,0.424969
4.157000,0.418156
4.158000,0.415885
4.159000,0.404205
4.160000,0.389606
4.161000,0.378900
4.162000,0.350999
4.163000,0.318231
4.164000,0.277353
4.165000,0.234528
4.166000,0.202734
4.167000,0.197219
4.168000,0.198841
4.169000,0.201112
4.170000,0.206952
4.171000,0.188135
4.172000,0.173211
4.173000,0.171913
4.174000,0.178726
4.175000,0.195272
4.176000,0.207276
4.177000,0.211494
4.178000,0.216036
4.179000,0.228040
4.180000,0.231609
4.181000,0.225444
4.182000,0.227391
4.183000,0.241990
4.184000,0.251399
4.185000,0.262105
4.186000,0.277353
4.187000,0.284815
4.188000,0.287410
4.189000,0.281895
4.190000,0.276380
4.191000,0.271838
4.192000,0.268593
4.193000,0.264376
4.194000,0.261780
4.195000,0.266971
4.196000,0.325369
4.197000,0.342563
4.198000,0.355216
4.199000,0.355865
4.200000,0.331208
4.201000,0.313689
4.202000,0.325693
4.203000,0.321800
4.204000,0.303956
4.205000,0.293899
4.206000,0.300063
4.207000,0.306552
4.208000,0.320178
4.209000,0.340617
4.210000,0.342563
4.211000,0.342563
4.212000,0.353919
4.213000,0.353919
4.214000,0.337048
4.215000,0.338346
4.216000,0.321151
4.217000,0.276704
4.218000,0.265998
4.219000,0.292926
4.220000,0.298117
4.221000,0.286113
4.222000,0.283842
4.223000,0.298441
4.224000,0.303956
4.225000,0.295197
4.226000,0.281895
4.227000,0.286762
4.228000,0.289033
4.229000,0.293250
4.230000,0.309472
4.231000,0.329586
4.232000,0.337373
4.233000,0.339968
4.234000,0.341915
4.235000,0.343212
4.236000,0.345808
4.237000,0.342888
4.238000,0.332506
4.239000,0.317582
4.240000,0.279949
4.241000,0.216360
4.242000,0.134604
4.243000,0.009050
4.244000,-0.151867
4.245000,-0.333548
4.246000,-0.515877
4.247000,-0.677767
4.248000,-0.784829
4.249000,-0.823436
4.250000,-0.798130
4.251000,-0.678416
4.252000,-0.491545
4.253000,-0.244330
4.254000,0.076531
4.255000,0.478824
4.256000,0.939515
4.257000,1.405721
4.258000,1.861871
4.259000,2.292391
4.260000,2.657052
4.261000,2.969803
4.262000,3.200150
4.263000,3.365935
4.264000,3.429523
4.265000,3.379236
4.266000,3.200150
4.267000,2.899726
4.268000,2.535714
4.269000,2.149317
4.270000,1.776870
4.271000,1.431027
4.272000,1.139039
4.273000,0.904476
4.274000,0.726364
4.275000,0.618653
4.276000,0.569016
4.277000,0.544034
4.278000,0.532355
4.279000,0.539168
4.280000,0.550848
4.281000,0.552470
4.282000,0.524244
4.283000,0.496343
4.284000,0.469740
4.285000,0.442163
4.286000,0.403881
4.287000,0.380846
4.288000,0.374033
4.289000,0.353594
4.290000,0.311743
4.291000,0.288059
4.292000,0.278326
4.293000,0.269242
4.294000,0.267945
4.295000,0.273460
4.296000,0.263403
4.297000,0.229013
4.298000,0.200463
4.299000,0.188135
4.300000,0.175807
4.301000,0.178078
4.302000,0.190730
4.303000,0.200139
4.304000,0.199490
4.305000,0.188459
4.306000,0.176131
4.307000,0.169318
4.308000,0.158287
4.309000,0.154070
4.310000,0.153745
4.311000,0.147257
4.312000,0.135253
4.313000,0.133631
4.314000,0.144337
4.315000,0.141417
4.316000,0.136551
4.317000,0.135902
4.318000,0.142390
4.319000,0.144661
4.320000,0.142715
4.321000,0.145310
4.322000,0.154719
4.323000,0.166723
4.324000,0.161532
4.325000,0.140444
4.326000,0.130062
4.327000,0.125844
4.328000,0.131684
4.329000,0.152123
4.330000,0.165425
4.331000,0.159910
4.332000,0.134604
4.333000,0.110272
4.334000,0.099890
4.335000,0.094050
4.336000,0.089508
4.337000,0.085615
4.338000,0.074909
4.339000,0.066149
4.340000,0.068096
4.341000,0.076531
4.342000,0.085291
4.343000,0.081722
4.344000,0.061283
4.345000,0.029164
4.346000,0.014889
4.347000,0.006130
4.348000,-0.003279
4.349000,-0.015282
4.350000,-0.021447
4.351000,-0.010740
4.352000,-0.010740
4.353000,-0.019825
4.354000,-0.026962
4.355000,-0.042210
4.356000,-0.055836
4.357000,-0.057134
4.358000,-0.053241
4.359000,-0.053241
4.360000,-0.055512
4.361000,-0.059080
4.362000,-0.039615
4.363000,-0.028909
4.364000,-0.037019
4.365000,-0.063298
4.366000,-0.075302
4.367000,-0.090226
4.368000,-0.110340
4.369000,-0.129482
4.370000,-0.129806
4.371000,-0.123966
4.372000,-0.129157
4.373000,-0.142134
4.374000,-0.158031
4.375000,-0.171982
4.376000,-0.172955
4.377000,-0.170684
4.378000,-0.166142
4.379000,-0.165493
4.380000,-0.166467
4.381000,-0.183337
4.382000,-0.201829
4.383000,-0.206047
4.384000,-0.211238
4.385000,-0.219349
4.386000,-0.228757
4.387000,-0.240437
4.388000,-0.257307
4.389000,-0.284559
4.390000,-0.322517
4.391000,-0.358853
4.392000,-0.390647
4.393000,-0.420819
4.394000,-0.450991
4.395000,-0.473701
4.396000,-0.494789
4.397000,-0.496736
4.398000,-0.491869
4.399000,-0.482136
4.400000,-0.464293
4.401000,-0.432174
4.402000,-0.392270
4.403000,-0.353014
4.404000,-0.304349
4.405000,-0.251143
4.406000,-0.172955
4.407000,-0.102554
4.408000,-0.040588
4.409000,0.014241
4.410000,0.057065
4.411000,0.088535
4.412000,0.122600
4.413000,0.150501
4.414000,0.171265
4.415000,0.189433
4.416000,0.203059
4.417000,0.223498
4.418000,0.246857
4.419000,0.264376
4.420000,0.263078
4.421000,0.266647
4.422000,0.279300
4.423000,0.277353
4.424000,0.303632
4.425000,0.329262
4.426000,0.324720
4.427000,0.309472
4.428000,0.318231
4.429000,0.337373
4.430000,0.360732
4.431000,0.387335
4.432000,0.389606
4.433000,0.355865
4.434000,0.325693
4.435000,0.308823
4.436000,0.303956
4.437000,0.309147
4.438000,0.303632
4.439000,0.304605
4.440000,0.313689
4.441000,0.319205
4.442000,0.319853
4.443000,0.314338
4.444000,0.301036
4.445000,0.289681
4.446000,0.290979
4.447000,0.301685
4.448000,0.306227
4.449000,0.300712
4.450000,0.303632
4.451000,0.300712
4.452000,0.286762
4.453000,0.287086
4.454000,0.283517
4.455000,0.274433
4.456000,0.273136
4.457000,0.267945
4.458000,0.261456
4.459000,0.253021
4.460000,0.255292
4.461000,0.265674
4.462000,0.271838
4.463000,0.261132
4.464000,0.251074
4.465000,0.254967
4.466000,0.265998
4.467000,0.269567
4.468000,0.268593
4.469000,0.271189
4.470000,0.266647
4.471000,0.268269
4.472000,0.279300
4.473000,0.273460
4.474000,0.266322
4.475000,0.258861
4.476000,0.253021
4.477000,0.250425
4.478000,0.259509
4.479000,0.268918
4.480000,0.282220
4.481000,0.282868
4.482000,0.278002
4.483000,0.285788
4.484000,0.284491
4.485000,0.274433
4.486000,0.260807
4.487000,0.243612
4.488000,0.231284
4.489000,0.219280
4.490000,0.216685
4.491000,0.223822
4.492000,0.228364
4.493000,0.227391
4.494000,0.235826
4.495000,0.243288
4.496000,0.241341
4.497000,0.244910
4.498000,0.261456
4.499000,0.276380
4.500000,0.267296
4.501000,0.257563
4.502000,0.244586
4.503000,0.222524
4.504000,0.216036
4.505000,0.230635
4.506000,0.250425
4.507000,0.247181
4.508000,0.232906
4.509000,0.221227
4.510000,0.211494
4.511000,0.206627
4.512000,0.205005
4.513000,0.215711
4.514000,0.232582
4.515000,0.240693
4.516000,0.244586
4.517000,0.244261
4.518000,0.239070
4.519000,0.246532
4.520000,0.253021
4.521000,0.269242
4.522000,0.285464
4.523000,0.293899
4.524000,0.290330
4.525000,0.298441
4.526000,0.299414
4.527000,0.303307
4.528000,0.316609
4.529000,0.313365
4.530000,0.295846
4.531000,0.303956
4.532000,0.325693
4.533000,0.347754
4.534000,0.345808
4.535000,0.326991
4.536000,0.314663
4.537000,0.307525
4.538000,0.308498
4.539000,0.310121
4.540000,0.308823
4.541000,0.301036
4.542000,0.295846
4.543000,0.302659
4.544000,0.317907
4.545000,0.339644
4.546000,0.351323
4.547000,0.355541
4.548000,0.367220
4.549000,0.377602
4.550000,0.385713
4.551000,0.406476
4.552000,0.429511
4.553000,0.431133
4.554000,0.427240
4.555000,0.417182
4.556000,0.399014
4.557000,0.386037
4.558000,0.392526
4.559000,0.379224
4.560000,0.362678
4.561000,0.355216
4.562000,0.354243
4.563000,0.358785
4.564000,0.368193
4.565000,0.379873
4.566000,0.386686
4.567000,0.394797
4.568000,0.393175
4.569000,0.392201
4.570000,0.398365
4.571000,0.408747
4.572000,0.419129
4.573000,0.421724
4.574000,0.419778
4.575000,0.424969
4.576000,0.432106
4.577000,0.429511
4.578000,0.419453
4.579000,0.411991
4.580000,0.416534
4.581000,0.409396
4.582000,0.406476
4.583000,0.411667
4.584000,0.418156
4.585000,0.423995
4.586000,0.422373
4.587000,0.423671
4.588000,0.417831
4.589000,0.406801
4.590000,0.403232
4.591000,0.400636
4.592000,0.402259
4.593000,0.405827
4.594000,0.402907
4.595000,0.394797
4.596000,0.385388
4.597000,0.372735
4.598000,0.365598
4.599000,0.362029
4.600000,0.365598
4.601000,0.384415
4.602000,0.383442
4.603000,0.370464
4.604000,0.370789
4.605000,0.370464
4.606000,0.378251
4.607000,0.387335
4.608000,0.395770
4.609000,0.386686
4.610000,0.384415
4.611000,0.390579
4.612000,0.383442
4.613000,0.368842
4.614000,0.375006
4.615000,0.377277
4.616000,0.372087
4.617000,0.367220
4.618000,0.357163
4.619000,0.351323
4.620000,0.345159
4.621000,0.322124
4.622000,0.314014
4.623000,0.320827
4.624000,0.324395
4.625000,0.319853
4.626000,0.326991
4.627000,0.324395
4.628000,0.305254
4.629000,0.296494
4.630000,0.303956
4.631000,0.304605
4.632000,0.291628
4.633000,0.284491
4.634000,0.281246
4.635000,0.274109
4.636000,0.278326
4.637000,0.298765
4.638000,0.309472
4.639000,0.313040
4.640000,0.302983
4.641000,0.277353
4.642000,0.265674
4.643000,0.271513
4.644000,0.281246
4.645000,0.301685
4.646000,0.328937
4.647000,0.326991
4.648000,0.319205
4.649000,0.312716
4.650000,0.329911
4.651000,0.342888
4.652000,0.358461
4.653000,0.385713
4.654000,0.409396
4.655000,0.413938
4.656000,0.405827
4.657000,0.397068
4.658000,0.380197
4.659000,0.370789
4.660000,0.369167
4.661000,0.378251
4.662000,0.392850
4.663000,0.411343
4.664000,0.418156
4.665000,0.411343
4.666000,0.378900
4.667000,0.331857
4.668000,0.288708
4.669000,0.262105
4.670000,0.248154
4.671000,0.226742
4.672000,0.201437
4.673000,0.184242
4.674000,0.166398
4.675000,0.152448
4.676000,0.149852
4.677000,0.161532
4.678000,0.162181
4.679000,0.150825
4.680000,0.145959
4.681000,0.154394
4.682000,0.151474
4.683000,0.141741
4.684000,0.143039
4.685000,0.148554
4.686000,0.140768
4.687000,0.134280
4.688000,0.138822
4.689000,0.140119
4.690000,0.136875
4.691000,0.134928
4.692000,0.130062
4.693000,0.110596
4.694000,0.095997
4.695000,0.087562
4.696000,0.090157
4.697000,0.095348
4.698000,0.095348
4.699000,0.101837
4.700000,0.097619
4.701000,0.097943
4.702000,0.112867
4.703000,0.125844
4.704000,0.112867
4.705000,0.101512
4.706000,0.100214
4.707000,0.098268
4.708000,0.105081
4.709000,0.112543
4.710000,0.104756
4.711000,0.100539
4.712000,0.100539
4.713000,0.105081
4.714000,0.123573
4.715000,0.134928
4.716000,0.145310
4.717000,0.162829
4.718000,0.177429
4.719000,0.177429
4.720000,0.167047
4.721000,0.165749
4.722000,0.170940
4.723000,0.167696
4.724000,0.172238
4.725000,0.178726
4.726000,0.184566
4.727000,0.195272
4.728000,0.211169
4.729000,0.223173
4.730000,0.229662
4.731000,0.220253
4.732000,0.207276
4.733000,0.193975
4.734000,0.197219
4.735000,0.210196
4.736000,0.223498
4.737000,0.224147
4.738000,0.236799
4.739000,0.242964
4.740000,0.244586
4.741000,0.234853
4.742000,0.230960
4.743000,0.227715
4.744000,0.229986
4.745000,0.250750
4.746000,0.263078
4.747000,0.267296
4.748000,0.263727
4.749000,0.260158
4.750000,0.253994
4.751000,0.199490
4.752000,0.128440
4.753000,0.024947
4.754000,-0.128184
4.755000,-0.331601
4.756000,-0.551564
4.757000,-0.760497
4.758000,-0.917845
4.759000,-1.000250
4.760000,-1.007063
4.761000,-0.929200
4.762000,-0.763092
4.763000,-0.554160
4.764000,-0.283910
4.765000,0.050577
4.766000,0.468767
4.767000,0.900583
4.768000,1.329805
4.769000,1.788874
4.770000,2.202199
4.771000,2.540256
4.772000,2.838733
4.773000,3.047343
4.774000,3.188795
4.775000,3.256601
4.776000,3.250112
4.777000,3.149863
4.778000,2.932169
4.779000,2.625257
4.780000,2.282333
4.781000,1.930650
4.782000,1.592918
4.783000,1.276922
4.784000,0.992072
4.785000,0.784113
4.786000,0.641039
4.787000,0.548252
4.788000,0.496343
4.789000,0.474282
4.790000,0.466496
4.791000,0.466496
4.792000,0.473958
4.793000,0.479473
4.794000,0.471038
4.795000,0.434053
4.796000,0.382793
4.797000,0.338670
4.798000,0.318880
4.799000,0.288059
4.800000,0.249128
4.801000,0.222849
4.802000,0.210845
4.803000,0.198192
4.804000,0.182295
4.805000,0.163478
4.806000,0.152772
4.807000,0.143364
4.808000,0.136875
4.809000,0.120654
4.810000,0.103783
4.811000,0.100539
4.812000,0.092753
4.813000,0.093077
4.814000,0.115138
4.815000,0.115463
4.816000,0.091779
4.817000,0.073287
4.818000,0.064203
4.819000,0.057065
4.820000,0.061932
4.821000,0.066798
4.822000,0.066798
4.823000,0.064203
4.824000,0.068096
4.825000,0.071016
4.826000,0.073287
4.827000,0.072638
4.828000,0.073611
4.829000,0.074909
4.830000,0.075882
4.831000,0.070691
4.832000,0.049279
4.833000,0.032409
4.834000,0.031435
4.835000,0.031760
4.836000,0.036302
4.837000,0.032733
4.838000,0.024298
4.839000,0.018134
4.840000,0.012943
4.841000,-0.001332
4.842000,-0.004901
4.843000,-0.005550
4.844000,-0.017553
4.845000,-0.031504
4.846000,-0.042535
4.847000,-0.058756
4.848000,-0.069138
4.849000,-0.074004
4.850000,-0.079195
4.851000,-0.089901
4.852000,-0.105474
4.853000,-0.121371
4.854000,-0.141486
4.855000,-0.166142
4.856000,-0.177497
4.857000,-0.174577
4.858000,-0.159005
4.859000,-0.149272
4.860000,-0.152841
4.861000,-0.160951
4.862000,-0.175226
4.863000,-0.190474
4.864000,-0.205074
4.865000,-0.210589
4.866000,-0.203127
4.867000,-0.211887
4.868000,-0.224215
4.869000,-0.232650
4.870000,-0.232975
4.871000,-0.242383
4.872000,-0.243681
4.873000,-0.243032
4.874000,-0.260227
4.875000,-0.265418
4.876000,-0.282288
4.877000,-0.313758
4.878000,-0.339712
4.879000,-0.340685
4.880000,-0.322517
4.881000,-0.321868
4.882000,-0.330952
4.883000,-0.342956
4.884000,-0.358204
4.885000,-0.377346
4.886000,-0.395189
4.887000,-0.396812
4.888000,-0.383510
4.889000,-0.373777
4.890000,-0.360800
4.891000,-0.357556
4.892000,-0.366640
4.893000,-0.373128
4.894000,-0.385132
4.895000,-0.395838
4.896000,-0.424388
4.897000,-0.445152
4.898000,-0.448071
4.899000,-0.455858
4.900000,-0.477270
4.901000,-0.495762
4.902000,-0.524637
4.903000,-0.561946
4.904000,-0.593091
4.905000,-0.622290
4.906000,-0.647595
4.907000,-0.674523
4.908000,-0.694313
4.909000,-0.709561
4.910000,-0.720267
4.911000,-0.722214
4.912000,-0.709886
4.913000,-0.682958
4.914000,-0.638187
4.915000,-0.591145
4.916000,-0.544102
4.917000,-0.482136
4.918000,-0.411086
4.919000,-0.333223
4.920000,-0.261849
4.921000,-0.202803
4.922000,-0.155112
4.923000,-0.112287
4.924000,-0.075951
4.925000,-0.048699
4.926000,-0.005874
4.927000,0.026569
4.928000,0.043115
4.929000,0.051550
4.930000,0.058363
4.931000,0.061607
4.932000,0.066149
4.933000,0.069394
4.934000,0.071016
4.935000,0.088535
4.936000,0.105405
4.937000,0.091455
4.938000,0.074909
4.939000,0.074585
4.940000,0.080100
4.941000,0.077180
4.942000,0.056416
4.943000,0.039871
4.944000,0.047332
4.945000,0.064203
4.946000,0.067123
4.947000,0.060310
4.948000,0.061607
4.949000,0.082695
4.950000,0.085615
4.951000,0.071340
4.952000,0.052848
4.953000,0.044737
4.954000,0.050901
4.955000,0.052523
4.956000,0.063229
4.957000,0.066798
4.958000,0.075882
4.959000,0.075233
4.960000,0.063878
4.961000,0.065176
4.962000,0.070691
4.963000,0.083020
4.964000,0.080749
4.965000,0.077504
4.966000,0.068096
4.967000,0.064852
4.968000,0.066798
4.969000,0.071016
4.970000,0.076856
4.971000,0.084317
4.972000,0.084317
4.973000,0.079775
4.974000,0.077180
4.975000,0.076856
4.976000,0.072314
4.977000,0.062905
4.978000,0.066149
4.979000,0.074909
4.980000,0.082371
4.981000,0.074909
4.982000,0.067771
4.983000,0.069718
4.984000,0.073611
4.985000,0.077504
4.986000,0.078153
4.987000,0.070043
4.988000,0.064852
4.989000,0.066798
4.990000,0.061607
4.991000,0.059336
4.992000,0.057390
4.993000,0.054794
4.994000,0.049928
4.995000,0.046035
4.996000,0.055443
4.997000,0.064527
4.998000,0.063878
4.999000,0.057065
5.000000,0.051550
5.001000,0.058039
5.002000,0.051226
5.003000,0.043439
5.004000,0.044088
5.005000,0.037924
5.006000,0.031111
5.007000,0.028516
5.008000,0.031435
5.009000,0.034680
5.010000,0.039546
5.011000,0.053821
5.012000,0.060634
5.013000,0.056416
5.014000,0.049603
5.015000,0.057714
5.016000,0.067447
5.017000,0.069718
5.018000,0.073936
5.019000,0.059661
5.020000,0.048630
5.021000,0.055768
5.022000,0.061607
5.023000,0.062581
5.024000,0.055119
5.025000,0.040195
5.026000,0.040844
5.027000,0.040519
5.028000,0.039222
5.029000,0.044088
5.030000,0.052848
5.031000,0.066474
5.032000,0.063229
5.033000,0.074260
5.034000,0.078153
5.035000,0.075558
5.036000,0.079127
5.037000,0.084966
5.038000,0.083669
5.039000,0.086264
5.040000,0.094375
5.041000,0.099241
5.042000,0.099241
5.043000,0.100539
5.044000,0.111570
5.045000,0.139470
5.046000,0.169318
5.047000,0.171913
5.048000,0.173536
5.049000,0.170616
5.050000,0.150177
5.051000,0.121951
5.052000,0.095997
5.053000,0.090157
5.054000,0.109947
5.055000,0.122600
5.056000,0.132333
5.057000,0.127791
5.058000,0.128115
5.059000,0.139470
5.060000,0.140444
5.061000,0.140119
5.062000,0.149203
5.063000,0.153421
5.064000,0.155043
5.065000,0.168994
5.066000,0.175807
5.067000,0.168669
5.068000,0.155368
5.069000,0.148554
5.070000,0.141417
5.071000,0.125520
5.072000,0.114489
5.073000,0.106379
5.074000,0.105081
5.075000,0.101837
5.076000,0.104756
5.077000,0.115138
5.078000,0.118058
5.079000,0.112867
5.080000,0.112218
5.081000,0.116112
5.082000,0.115138
5.083000,0.110272
5.084000,0.112867
5.085000,0.120978
5.086000,0.120654
5.087000,0.127142
5.088000,0.136226
5.089000,0.132333
5.090000,0.114814
5.091000,0.099566
5.092000,0.094050
5.093000,0.099241
5.094000,0.104756
5.095000,0.110272
5.096000,0.110272
5.097000,0.105405
5.098000,0.108650
5.099000,0.119031
5.100000,0.120329
5.101000,0.113192
5.102000,0.104432
5.103000,0.097619
5.104000,0.091779
5.105000,0.089508
5.106000,0.090157
5.107000,0.108974
5.108000,0.114814
5.109000,0.115463
5.110000,0.122925
5.111000,0.128440
5.112000,0.125196
5.113000,0.114814
5.114000,0.095348
5.115000,0.081073
5.116000,0.077504
5.117000,0.079775
5.118000,0.082695
5.119000,0.073611
5.120000,0.068745
5.121000,0.074585
5.122000,0.075882
5.123000,0.073287
5.124000,0.068096
5.125000,0.070691
5.126000,0.076207
5.127000,0.070043
5.128000,0.071989
5.129000,0.072638
5.130000,0.073611
5.131000,0.057714
5.132000,0.044413
5.133000,0.046359
5.134000,0.053821
5.135000,0.063554
5.136000,0.056092
5.137000,0.051226
5.138000,0.067123
5.139000,0.074260
5.140000,0.063878
5.141000,0.059985
5.142000,0.066798
5.143000,0.071665
5.144000,0.079127
5.145000,0.083020
5.146000,0.087562
5.147000,0.090482
5.148000,0.092104
5.149000,0.085615
5.150000,0.072638
5.151000,0.080424
5.152000,0.086588
5.153000,0.091779
5.154000,0.103459
5.155000,0.108001
5.156000,0.103134
5.157000,0.104432
5.158000,0.101837
5.159000,0.102485
5.160000,0.103783
5.161000,0.108325
5.162000,0.111245
5.163000,0.114165
5.164000,0.110596
5.165000,0.114165
5.166000,0.123898
5.167000,0.139795
5.168000,0.158287
5.169000,0.163803
5.170000,0.169967
5.171000,0.182944
5.172000,0.190081
5.173000,0.179700
5.174000,0.167696
5.175000,0.172562
5.176000,0.203383
5.177000,0.229013
5.178000,0.245559
5.179000,0.257238
5.180000,0.266971
5.181000,0.272487
5.182000,0.261456
5.183000,0.244586
5.184000,0.227066
5.185000,0.213765
5.186000,0.217334
5.187000,0.221227
5.188000,0.221876
5.189000,0.204032
5.190000,0.175158
5.191000,0.146932
5.192000,0.127467
5.193000,0.107676
5.194000,0.070367
5.195000,0.041168
5.196000,0.022027
5.197000,0.012943
5.198000,0.004832
5.199000,0.005481
5.200000,0.018134
5.201000,0.026569
5.202000,0.027867
5.203000,0.023325
5.204000,0.025271
5.205000,0.023325
5.206000,0.015538
5.207000,0.007752
5.208000,0.005805
5.209000,0.017485
5.210000,0.029164
5.211000,0.044088
5.212000,0.045061
5.213000,0.037275
5.214000,0.027867
5.215000,0.015214
5.216000,0.014241
5.217000,0.021378
5.218000,0.029164
5.219000,0.040195
5.220000,0.053821
5.221000,0.070043
5.222000,0.072638
5.223000,0.064527
5.224000,0.070367
5.225000,0.084317
5.226000,0.102810
5.227000,0.114165
5.228000,0.110921
5.229000,0.099890
5.230000,0.102485
5.231000,0.120978
5.232000,0.115787
5.233000,0.111894
5.234000,0.114814
5.235000,0.117409
5.236000,0.118707
5.237000,0.108974
5.238000,0.106379
5.239000,0.118707
5.240000,0.123249
5.241000,0.121302
5.242000,0.126818
5.243000,0.134280
5.244000,0.136226
5.245000,0.138822
5.246000,0.143688
5.247000,0.136226
5.248000,0.124871
5.249000,0.118707
5.250000,0.113516
5.251000,0.110596
5.252000,0.115787
5.253000,0.130062
5.254000,0.130711
5.255000,0.118383
5.256000,0.112218
5.257000,0.103134
5.258000,0.097619
5.259000,0.096321
5.260000,0.095997
5.261000,0.096970
5.262000,0.092428
5.263000,0.080100
5.264000,0.082371
5.265000,0.091130
5.266000,0.093077
5.267000,0.094375
5.268000,0.088211
5.269000,0.076531
5.270000,0.058363
5.271000,0.016836
5.272000,-0.054863
5.273000,-0.162249
5.274000,-0.321220
5.275000,-0.509389
5.276000,-0.702099
5.277000,-0.894161
5.278000,-1.033017
5.279000,-1.082979
5.280000,-1.081033
5.281000,-1.006414
5.282000,-0.857825
5.283000,-0.635916
5.284000,-0.376697
5.285000,-0.039615
5.286000,0.390579
5.287000,0.849972
5.288000,1.304823
5.289000,1.742156
5.290000,2.132122
5.291000,2.476992
5.292000,2.755354
5.293000,2.944822
5.294000,3.069404
5.295000,3.102496
5.296000,3.029499
5.297000,2.834840
5.298000,2.529874
5.299000,2.165214
5.300000,1.791469
5.301000,1.425187
5.302000,1.067989
5.303000,0.754590
5.304000,0.529435
5.305000,0.370464
5.306000,0.272162
5.307000,0.225769
5.308000,0.212143
5.309000,0.213440
5.310000,0.219280
5.311000,0.217334
5.312000,0.206627
5.313000,0.194299
5.314000,0.181646
5.315000,0.153745
5.316000,0.109298
5.317000,0.069718
5.318000,0.044737
5.319000,0.024947
5.320000,-0.001332
5.321000,-0.028909
5.322000,-0.050321
5.323000,-0.070760
5.324000,-0.077897
5.325000,-0.074978
5.326000,-0.077897
5.327000,-0.088279
5.328000,-0.105474
5.329000,-0.122020
5.330000,-0.131428
5.331000,-0.129157
5.332000,-0.125264
5.333000,-0.135321
5.334000,-0.151543
5.335000,-0.153814
5.336000,-0.166467
5.337000,-0.182364
5.338000,-0.193394
5.339000,-0.192097
5.340000,-0.186257
5.341000,-0.180742
5.342000,-0.179768
5.343000,-0.184310
5.344000,-0.185608
5.345000,-0.187555
5.346000,-0.200856
5.347000,-0.206371
5.348000,-0.213185
5.349000,-0.229082
5.350000,-0.245303
5.351000,-0.250494
5.352000,-0.260551
5.353000,-0.263795
5.354000,-0.261524
5.355000,-0.268338
5.356000,-0.282288
5.357000,-0.288777
5.358000,-0.281639
5.359000,-0.267040
5.360000,-0.264769
5.361000,-0.268662
5.362000,-0.272555
5.363000,-0.271582
5.364000,-0.262822
5.365000,-0.260876
5.366000,-0.282288
5.367000,-0.294941
5.368000,-0.302078
5.369000,-0.323491
5.370000,-0.329655
5.371000,-0.336143
5.372000,-0.351391
5.373000,-0.367288
5.374000,-0.370857
5.375000,-0.372804
5.376000,-0.370533
5.377000,-0.367288
5.378000,-0.366964
5.379000,-0.372479
5.380000,-0.391945
5.381000,-0.407518
5.382000,-0.406544
5.383000,-0.416602
5.384000,-0.426010
5.385000,-0.427308
5.386000,-0.427308
5.387000,-0.433472
5.388000,-0.444178
5.389000,-0.450991
5.390000,-0.456831
5.391000,-0.468510
5.392000,-0.477919
5.393000,-0.485381
5.394000,-0.493491
5.395000,-0.497060
5.396000,-0.496087
5.397000,-0.499656
5.398000,-0.511335
5.399000,-0.526259
5.400000,-0.540209
5.401000,-0.534045
5.402000,-0.521392
5.403000,-0.521392
5.404000,-0.555457
5.405000,-0.587252
5.406000,-0.600878
5.407000,-0.604122
5.408000,-0.616450
5.409000,-0.618072
5.410000,-0.616126
5.411000,-0.619046
5.412000,-0.627481
5.413000,-0.643053
5.414000,-0.667061
5.415000,-0.682634
5.416000,-0.693015
5.417000,-0.694962
5.418000,-0.700802
5.419000,-0.709886
5.420000,-0.723512
5.421000,-0.742978
5.422000,-0.764714
5.423000,-0.792291
5.424000,-0.820192
5.425000,-0.845822
5.426000,-0.868207
5.427000,-0.875993
5.428000,-0.888971
5.429000,-0.895459
5.430000,-0.895135
5.431000,-0.888646
5.432000,-0.870154
5.433000,-0.834142
5.434000,-0.789695
5.435000,-0.744924
5.436000,-0.699504
5.437000,-0.650840
5.438000,-0.591794
5.439000,-0.528205
5.440000,-0.466239
5.441000,-0.404273
5.442000,-0.347174
5.443000,-0.294616
5.444000,-0.248547
5.445000,-0.221295
5.446000,-0.198261
5.447000,-0.174902
5.448000,-0.152192
5.449000,-0.143432
5.450000,-0.139863
5.451000,-0.122993
5.452000,-0.103203
5.453000,-0.099959
5.454000,-0.094443
5.455000,-0.091523
5.456000,-0.090226
5.457000,-0.090226
5.458000,-0.094443
5.459000,-0.109043
5.460000,-0.120722
5.461000,-0.119424
5.462000,-0.106447
5.463000,-0.099959
5.464000,-0.094119
5.465000,-0.092172
5.466000,-0.107096
5.467000,-0.118127
5.468000,-0.126237
5.469000,-0.140188
5.470000,-0.148623
5.471000,-0.151867
5.472000,-0.156409
5.473000,-0.153814
5.474000,-0.147325
5.475000,-0.142134
5.476000,-0.143432
5.477000,-0.133699
5.478000,-0.120722
5.479000,-0.119100
5.480000,-0.123966
5.481000,-0.131104
5.482000,-0.136295
5.483000,-0.132402
5.484000,-0.128833
5.485000,-0.127535
5.486000,-0.129157
5.487000,-0.129806
5.488000,-0.130455
5.489000,-0.132726
5.490000,-0.133050
5.491000,-0.128508
5.492000,-0.129806
5.493000,-0.131104
5.494000,-0.135970
5.495000,-0.127535
5.496000,-0.116829
5.497000,-0.121371
5.498000,-0.120073
5.499000,-0.110340
5.500000,-0.098985
5.501000,-0.103203
5.502000,-0.118776
5.503000,-0.121371
5.504000,-0.118127
5.505000,-0.106123
5.506000,-0.100607
5.507000,-0.112611
5.508000,-0.120722
5.509000,-0.111962
5.510000,-0.108394
5.511000,-0.110989
5.512000,-0.117153
5.513000,-0.120722
5.514000,-0.121047
5.515000,-0.121371
5.516000,-0.118127
5.517000,-0.091199
5.518000,-0.079520
5.519000,-0.099959
5.520000,-0.101905
5.521000,-0.097688
5.522000,-0.107096
5.523000,-0.115531
5.524000,-0.115207
5.525000,-0.126562
5.526000,-0.134348
5.527000,-0.131753
5.528000,-0.121047
5.529000,-0.112611
5.530000,-0.116180
5.531000,-0.124940
5.532000,-0.126886
5.533000,-0.125589
5.534000,-0.121695
5.535000,-0.128508
5.536000,-0.138241
5.537000,-0.146676
5.538000,-0.152192
5.539000,-0.152192
5.540000,-0.146352
5.541000,-0.137268
5.542000,-0.126237
5.543000,-0.110989
5.544000,-0.108069
5.545000,-0.117478
5.546000,-0.117478
5.547000,-0.111962
5.548000,-0.106447
5.549000,-0.097039
5.550000,-0.088279
5.551000,-0.086981
5.552000,-0.086981
5.553000,-0.087955
5.554000,-0.090226
5.555000,-0.099310
5.556000,-0.117478
5.557000,-0.129157
5.558000,-0.130455
5.559000,-0.125589
5.560000,-0.122020
5.561000,-0.129806
5.562000,-0.134348
5.563000,-0.133375
5.564000,-0.132402
5.565000,-0.138566
5.566000,-0.136619
5.567000,-0.127860
5.568000,-0.120722
5.569000,-0.111962
5.570000,-0.114882
5.571000,-0.125264
5.572000,-0.121047
5.573000,-0.112287
5.574000,-0.090875
5.575000,-0.082764
5.576000,-0.104176
5.577000,-0.124615
5.578000,-0.136944
5.579000,-0.128833
5.580000,-0.128184
5.581000,-0.148947
5.582000,-0.152516
5.583000,-0.137268
5.584000,-0.122344
5.585000,-0.121695
5.586000,-0.116180
5.587000,-0.117153
5.588000,-0.127211
5.589000,-0.131104
5.590000,-0.123966
5.591000,-0.120722
5.592000,-0.124615
5.593000,-0.126237
5.594000,-0.118451
5.595000,-0.107420
5.596000,-0.109043
5.597000,-0.104501
5.598000,-0.100932
5.599000,-0.103527
5.600000,-0.108718
5.601000,-0.109043
5.602000,-0.107096
5.603000,-0.101256
5.604000,-0.096714
5.605000,-0.087630
5.606000,-0.082764
5.607000,-0.075626
5.608000,-0.066867
5.609000,-0.070111
5.610000,-0.078222
5.611000,-0.081791
5.612000,-0.080168
5.613000,-0.084062
5.614000,-0.085359
5.615000,-0.079195
5.616000,-0.073680
5.617000,-0.071733
5.618000,-0.074978
5.619000,-0.072382
5.620000,-0.074329
5.621000,-0.069138
5.622000,-0.059729
5.623000,-0.054538
5.624000,-0.072058
5.625000,-0.080493
5.626000,-0.081466
5.627000,-0.076275
5.628000,-0.073355
5.629000,-0.069462
5.630000,-0.056809
5.631000,-0.062974
5.632000,-0.076600
5.633000,-0.084710
5.634000,-0.088604
5.635000,-0.086657
5.636000,-0.088928
5.637000,-0.095741
5.638000,-0.102878
5.639000,-0.091523
5.640000,-0.072382
5.641000,-0.058107
5.642000,-0.047401
5.643000,-0.038966
5.644000,-0.038641
5.645000,-0.054863
5.646000,-0.063622
5.647000,-0.068813
5.648000,-0.056485
5.649000,-0.025340
5.650000,-0.011389
5.651000,-0.016580
5.652000,-0.026638
5.653000,-0.022096
5.654000,-0.009118
5.655000,0.016836
5.656000,0.057714
5.657000,0.088535
5.658000,0.101188
5.659000,0.105081
5.660000,0.109623
5.661000,0.118058
5.662000,0.135253
5.663000,0.131035
5.664000,0.101837
5.665000,0.077829
5.666000,0.071989
5.667000,0.066474
5.668000,0.048306
5.669000,0.025920
5.670000,0.003534
5.671000,-0.007496
5.672000,-0.020473
5.673000,-0.044481
5.674000,-0.071409
5.675000,-0.089577
5.676000,-0.098661
5.677000,-0.110989
5.678000,-0.125913
5.679000,-0.133699
5.680000,-0.130455
5.681000,-0.116180
5.682000,-0.108394
5.683000,-0.105798
5.684000,-0.104501
5.685000,-0.106772
5.686000,-0.100932
5.687000,-0.105474
5.688000,-0.113585
5.689000,-0.118127
5.690000,-0.113585
5.691000,-0.098012
5.692000,-0.099634
5.693000,-0.085359
5.694000,-0.090875
5.695000,-0.099959
5.696000,-0.101256
5.697000,-0.108394
5.698000,-0.123318
5.699000,-0.131428
5.700000,-0.127860
5.701000,-0.121047
5.702000,-0.105149
5.703000,-0.099959
5.704000,-0.115531
5.705000,-0.120722
5.706000,-0.114558
5.707000,-0.110016
5.708000,-0.105798
5.709000,-0.093146
5.710000,-0.081142
5.711000,-0.065894
5.712000,-0.058432
5.713000,-0.074004
5.714000,-0.084062
5.715000,-0.073031
5.716000,-0.066218
5.717000,-0.066542
5.718000,-0.079195
5.719000,-0.093470
5.720000,-0.100607
5.721000,-0.102230
5.722000,-0.105474
5.723000,-0.107096
5.724000,-0.109367
5.725000,-0.113585
5.726000,-0.108718
5.727000,-0.101905
5.728000,-0.101905
5.729000,-0.101581
5.730000,-0.100283
5.731000,-0.101256
5.732000,-0.106447
5.733000,-0.111962
5.734000,-0.117802
5.735000,-0.117478
5.736000,-0.105474
5.737000,-0.088928
5.738000,-0.073680
5.739000,-0.066867
5.740000,-0.087306
5.741000,-0.106123
5.742000,-0.105149
5.743000,-0.097363
5.744000,-0.090226
5.745000,-0.087955
5.746000,-0.086981
5.747000,-0.087955
5.748000,-0.095417
5.749000,-0.110340
5.750000,-0.142783
5.751000,-0.205723
5.752000,-0.300780
5.753000,-0.434121
5.754000,-0.602500
5.755000,-0.805268
5.756000,-1.028799
5.757000,-1.224430
5.758000,-1.353228
5.759000,-1.417465
5.760000,-1.420385
5.761000,-1.323056
5.762000,-1.142998
5.763000,-0.889619
5.764000,-0.563893
5.765000,-0.162898
5.766000,0.299414
5.767000,0.783139
5.768000,1.265567
5.769000,1.732423
5.770000,2.125958
5.771000,2.470179
5.772000,2.749514
5.773000,2.938982
5.774000,3.087572
5.775000,3.142401
5.776000,3.050911
5.777000,2.824458
5.778000,2.491592
5.779000,2.093190
5.780000,1.689923
5.781000,1.324289
5.782000,0.970660
5.783000,0.642986
5.784000,0.394797
5.785000,0.231609
5.786000,0.137199
5.787000,0.099241
5.788000,0.102161
5.789000,0.110596
5.790000,0.106054
5.791000,0.092753
5.792000,0.080749
5.793000,0.066149
5.794000,0.036951
5.795000,-0.003279
5.796000,-0.037019
5.797000,-0.069138
5.798000,-0.107096
5.799000,-0.140837
5.800000,-0.174577
5.801000,-0.211562
5.802000,-0.237841
5.803000,-0.247250
5.804000,-0.255360
5.805000,-0.258929
5.806000,-0.268662
5.807000,-0.280990
5.808000,-0.297536
5.809000,-0.313758
5.810000,-0.317651
5.811000,-0.310513
5.812000,-0.307593
5.813000,-0.313433
5.814000,-0.314731
5.815000,-0.322517
5.816000,-0.328681
5.817000,-0.321544
5.818000,-0.321868
5.819000,-0.351716
5.820000,-0.383834
5.821000,-0.395189
5.822000,-0.401029
5.823000,-0.399407
5.824000,-0.399083
5.825000,-0.395189
5.826000,-0.382537
5.827000,-0.384159
5.828000,-0.395838
5.829000,-0.405247
5.830000,-0.409789
5.831000,-0.414006
5.832000,-0.414980
5.833000,-0.418873
5.834000,-0.429903
5.835000,-0.438339
5.836000,-0.434770
5.837000,-0.435743
5.838000,-0.434121
5.839000,-0.432499
5.840000,-0.432499
5.841000,-0.431525
5.842000,-0.426335
5.843000,-0.422441
5.844000,-0.422441
5.845000,-0.430877
5.846000,-0.447098
5.847000,-0.459751
5.848000,-0.456831
5.849000,-0.443205
5.850000,-0.433472
5.851000,-0.441907
5.852000,-0.475323
5.853000,-0.495762
5.854000,-0.499007
5.855000,-0.501278
5.856000,-0.500304
5.857000,-0.501927
5.858000,-0.504198
5.859000,-0.503549
5.860000,-0.506144
5.861000,-0.507118
5.862000,-0.501602
5.863000,-0.507442
5.864000,-0.510362
5.865000,-0.509064
5.866000,-0.514904
5.867000,-0.522690
5.868000,-0.535992
5.869000,-0.538587
5.870000,-0.529828
5.871000,-0.520744
5.872000,-0.516526
5.873000,-0.544102
5.874000,-0.581736
5.875000,-0.604122
5.876000,-0.611584
5.877000,-0.621965
5.878000,-0.641431
5.879000,-0.662844
5.880000,-0.678741
5.881000,-0.689447
5.882000,-0.700153
5.883000,-0.712157
5.884000,-0.722214
5.885000,-0.723836
5.886000,-0.723187
5.887000,-0.727405
5.888000,-0.743302
5.889000,-0.760821
5.890000,-0.768607
5.891000,-0.778340
5.892000,-0.789046
5.893000,-0.794562
5.894000,-0.799753
5.895000,-0.804295
5.896000,-0.825707
5.897000,-0.851337
5.898000,-0.874371
5.899000,-0.886375
5.900000,-0.912654
5.901000,-0.942826
5.902000,-0.972998
5.903000,-1.000250
5.904000,-1.025880
5.905000,-1.054754
5.906000,-1.074220
5.907000,-1.092388
5.908000,-1.097903
5.909000,-1.082330
5.910000,-1.070326
5.911000,-1.076491
5.912000,-1.049239
5.913000,-0.995059
5.914000,-0.938284
5.915000,-0.873722
5.916000,-0.798779
5.917000,-0.727729
5.918000,-0.655382
5.919000,-0.590820
5.920000,-0.536316
5.921000,-0.474675
5.922000,-0.424064
5.923000,-0.381239
5.924000,-0.329655
5.925000,-0.287154
5.926000,-0.266715
5.927000,-0.255685
5.928000,-0.245952
5.929000,-0.236868
5.930000,-0.229406
5.931000,-0.219024
5.932000,-0.213509
5.933000,-0.214158
5.934000,-0.218051
5.935000,-0.205074
5.936000,-0.187555
5.937000,-0.187555
5.938000,-0.191448
5.939000,-0.190150
5.940000,-0.179444
5.941000,-0.176524
5.942000,-0.180093
5.943000,-0.184310
5.944000,-0.188203
5.945000,-0.190474
5.946000,-0.192097
5.947000,-0.193719
5.948000,-0.197287
5.949000,-0.201829
5.950000,-0.204749
5.951000,-0.204425
5.952000,-0.206696
5.953000,-0.212211
5.954000,-0.213833
5.955000,-0.207020
5.956000,-0.196963
5.957000,-0.178146
5.958000,-0.173929
5.959000,-0.173604
5.960000,-0.178471
5.961000,-0.195341
5.962000,-0.204425
5.963000,-0.202803
5.964000,-0.199234
5.965000,-0.213185
5.966000,-0.223242
5.967000,-0.221944
5.968000,-0.199234
5.969000,-0.184959
5.970000,-0.210913
5.971000,-0.236868
5.972000,-0.257631
5.973000,-0.260551
5.974000,-0.255360
5.975000,-0.255685
5.976000,-0.268338
5.977000,-0.279044
5.978000,-0.283910
5.979000,-0.284235
5.980000,-0.282612
5.981000,-0.281964
5.982000,-0.282288
5.983000,-0.277746
5.984000,-0.283586
5.985000,-0.288777
5.986000,-0.290723
5.987000,-0.294616
5.988000,-0.298509
5.989000,-0.294292
5.990000,-0.286181
5.991000,-0.289425
5.992000,-0.297861
5.993000,-0.300456
5.994000,-0.300456
5.995000,-0.300132
5.996000,-0.308242
5.997000,-0.311811
5.998000,-0.319597
5.999000,-0.323491
6.000000,-0.315380
6.001000,-0.305322
6.002000,-0.303376
6.003000,-0.306945
6.004000,-0.306945
6.005000,-0.309864
6.006000,-0.315704
6.007000,-0.315380
6.008000,-0.304349
6.009000,-0.296563
6.010000,-0.293643
6.011000,-0.287154
6.012000,-0.264444
6.013000,-0.243032
6.014000,-0.245952
6.015000,-0.254387
6.016000,-0.272555
6.017000,-0.291372
6.018000,-0.299483
6.019000,-0.301105
6.020000,-0.300456
6.021000,-0.294292
6.022000,-0.292021
6.023000,-0.280990
6.024000,-0.263147
6.025000,-0.251143
6.026000,-0.255036
6.027000,-0.251143
6.028000,-0.240437
6.029000,-0.238814
6.030000,-0.256334
6.031000,-0.261524
6.032000,-0.240112
6.033000,-0.226811
6.034000,-0.236219
6.035000,-0.244330
6.036000,-0.244654
6.037000,-0.245627
6.038000,-0.268662
6.039000,-0.292670
6.040000,-0.306296
6.041000,-0.314406
6.042000,-0.319273
6.043000,-0.321868
6.044000,-0.316353
6.045000,-0.297212
6.046000,-0.284235
6.047000,-0.282937
6.048000,-0.281964
6.049000,-0.280017
6.050000,-0.277746
6.051000,-0.274177
6.052000,-0.287803
6.053000,-0.290399
6.054000,-0.275151
6.055000,-0.262173
6.056000,-0.256982
6.057000,-0.255036
6.058000,-0.259578
6.059000,-0.263795
6.060000,-0.250169
6.061000,-0.226162
6.062000,-0.218375
6.063000,-0.221295
6.064000,-0.223566
6.065000,-0.214807
6.066000,-0.215456
6.067000,-0.232326
6.068000,-0.243032
6.069000,-0.242383
6.070000,-0.239139
6.071000,-0.236868
6.072000,-0.236543
6.073000,-0.239788
6.074000,-0.247574
6.075000,-0.255036
6.076000,-0.251467
6.077000,-0.246276
6.078000,-0.239139
6.079000,-0.238166
6.080000,-0.237192
6.081000,-0.235895
6.082000,-0.237192
6.083000,-0.234272
6.084000,-0.228757
6.085000,-0.226811
6.086000,-0.227459
6.087000,-0.229730
6.088000,-0.227784
6.089000,-0.231353
6.090000,-0.238814
6.091000,-0.245303
6.092000,-0.240761
6.093000,-0.229082
6.094000,-0.229730
6.095000,-0.231677
6.096000,-0.240437
6.097000,-0.250169
6.098000,-0.248223
6.099000,-0.243032
6.100000,-0.251792
6.101000,-0.246601
6.102000,-0.235570
6.103000,-0.223891
6.104000,-0.226486
6.105000,-0.225837
6.106000,-0.223891
6.107000,-0.230055
6.108000,-0.231028
6.109000,-0.227784
6.110000,-0.214158
6.111000,-0.193394
6.112000,-0.179768
6.113000,-0.182039
6.114000,-0.186581
6.115000,-0.182364
6.116000,-0.169711
6.117000,-0.160951
6.118000,-0.146352
6.119000,-0.114558
6.120000,-0.094443
6.121000,-0.077897
6.122000,-0.065569
6.123000,-0.069462
6.124000,-0.069787
6.125000,-0.042535
6.126000,-0.006523
6.127000,0.023325
6.128000,0.045710
6.129000,0.055119
6.130000,0.047008
6.131000,0.034355
6.132000,0.034031
6.133000,0.045061
6.134000,0.046684
6.135000,0.042466
6.136000,0.037600
6.137000,0.043115
6.138000,0.044737
6.139000,0.035329
6.140000,0.016512
6.141000,-0.003603
6.142000,-0.031504
6.143000,-0.058756
6.144000,-0.083088
6.145000,-0.103852
6.146000,-0.122020
6.147000,-0.134673
6.148000,-0.135321
6.149000,-0.132726
6.150000,-0.143108
6.151000,-0.152192
6.152000,-0.160302
6.153000,-0.166467
6.154000,-0.169387
6.155000,-0.168738
6.156000,-0.173280
6.157000,-0.173929
6.158000,-0.172306
6.159000,-0.172631
6.160000,-0.179119
6.161000,-0.187230
6.162000,-0.182039
6.163000,-0.170035
6.164000,-0.174902
6.165000,-0.190150
6.166000,-0.185284
6.167000,-0.173929
6.168000,-0.176524
6.169000,-0.183013
6.170000,-0.188203
6.171000,-0.188203
6.172000,-0.179119
6.173000,-0.165493
6.174000,-0.159329
6.175000,-0.158680
6.176000,-0.153814
6.177000,-0.146676
6.178000,-0.150894
6.179000,-0.151867
6.180000,-0.153165
6.181000,-0.152192
6.182000,-0.151867
6.183000,-0.159654
6.184000,-0.166791
6.185000,-0.169062
6.186000,-0.178146
6.187000,-0.161925
6.188000,-0.134024
6.189000,-0.159005
6.190000,-0.180417
6.191000,-0.175551
6.192000,-0.169387
6.193000,-0.167440
6.194000,-0.158356
6.195000,-0.148623
6.196000,-0.144730
6.197000,-0.149596
6.198000,-0.160302
6.199000,-0.158356
6.200000,-0.145703
6.201000,-0.132726
6.202000,-0.122344
6.203000,-0.117802
6.204000,-0.120073
6.205000,-0.125264
6.206000,-0.124940
6.207000,-0.133050
6.208000,-0.149921
6.209000,-0.157383
6.210000,-0.149921
6.211000,-0.147001
6.212000,-0.150894
6.213000,-0.151867
6.214000,-0.164845
6.215000,-0.201505
6.216000,-0.266715
6.217000,-0.345552
6.218000,-0.440610
6.219000,-0.578168
6.220000,-0.761470
6.221000,-0.956127
6.222000,-1.140727
6.223000,-1.286072
6.224000,-1.360041
6.225000,-1.363286
6.226000,-1.292885
6.227000,-1.137483
6.228000,-0.917196
6.229000,-0.627156
6.230000,-0.262822
6.231000,0.176455
6.232000,0.651745
6.233000,1.125089
6.234000,1.572154
6.235000,1.978666
6.236000,2.322563
6.237000,2.612929
6.238000,2.811481
6.239000,2.950013
6.240000,2.997705
6.241000,2.916597
6.242000,2.683979
6.243000,2.352411
6.244000,1.964067
6.245000,1.568910
6.246000,1.200357
6.247000,0.837319
6.248000,0.511267
6.249000,0.268918
6.250000,0.090157
6.251000,-0.019500
6.252000,-0.062325
6.253000,-0.072058
6.254000,-0.065894
6.255000,-0.058432
6.256000,-0.063298
6.257000,-0.074004
6.258000,-0.083737
6.259000,-0.114558
6.260000,-0.153814
6.261000,-0.183337
6.262000,-0.218051
6.263000,-0.244979
6.264000,-0.258280
6.265000,-0.277097
6.266000,-0.300456
6.267000,-0.329006
6.268000,-0.350094
6.269000,-0.370857
6.270000,-0.389999
6.271000,-0.401354
6.272000,-0.399083
6.273000,-0.399083
6.274000,-0.408491
6.275000,-0.411086
6.276000,-0.414980
6.277000,-0.423090
6.278000,-0.427957
6.279000,-0.435094
6.280000,-0.439961
6.281000,-0.435094
6.282000,-0.419846
6.283000,-0.409789
6.284000,-0.415953
6.285000,-0.439312
6.286000,-0.457155
6.287000,-0.452938
6.288000,-0.447098
6.289000,-0.439961
6.290000,-0.439961
6.291000,-0.447098
6.292000,-0.462671
6.293000,-0.469159
6.294000,-0.469159
6.295000,-0.466564
6.296000,-0.472404
6.297000,-0.478243
6.298000,-0.476946
6.299000,-0.480839
6.300000,-0.487976
6.301000,-0.487003
6.302000,-0.479541
6.303000,-0.493491
6.304000,-0.501602
6.305000,-0.506144
6.306000,-0.499007
6.307000,-0.489274
6.308000,-0.482785
6.309000,-0.483110
6.310000,-0.474026
6.311000,-0.460400
6.312000,-0.461373
6.313000,-0.467213
6.314000,-0.473377
6.315000,-0.461049
6.316000,-0.445152
6.317000,-0.461049
6.318000,-0.465915
6.319000,-0.460400
6.320000,-0.470457
6.321000,-0.484732
6.322000,-0.486354
6.323000,-0.495762
6.324000,-0.511335
6.325000,-0.523988
6.326000,-0.523988
6.327000,-0.525610
6.328000,-0.541507
6.329000,-0.549942
6.330000,-0.547996
6.331000,-0.534694
6.332000,-0.519121
6.333000,-0.523015
6.334000,-0.535992
6.335000,-0.547022
6.336000,-0.565515
6.337000,-0.587252
6.338000,-0.605095
6.339000,-0.620992
6.340000,-0.629752
6.341000,-0.636565
6.342000,-0.639160
6.343000,-0.647595
6.344000,-0.655706
6.345000,-0.662195
6.346000,-0.669332
6.347000,-0.685878
6.348000,-0.704695
6.349000,-0.720267
6.350000,-0.722863
6.351000,-0.727729
6.352000,-0.748817
6.353000,-0.762768
6.354000,-0.771852
6.355000,-0.770878
6.356000,-0.757901
6.357000,-0.760821
6.358000,-0.778665
6.359000,-0.782233
6.360000,-0.788073
6.361000,-0.796508
6.362000,-0.808837
6.363000,-0.830573
6.364000,-0.839982
6.365000,-0.853932
6.366000,-0.888322
6.367000,-0.920765
6.368000,-0.940230
6.369000,-0.953208
6.370000,-0.966509
6.371000,-0.985002
6.372000,-1.011929
6.373000,-1.035288
6.374000,-1.032368
6.375000,-1.006738
6.376000,-0.974620
6.377000,-0.942177
6.378000,-0.884429
6.379000,-0.832196
6.380000,-0.795211
6.381000,-0.733894
6.382000,-0.645000
6.383000,-0.562595
6.384000,-0.492518
6.385000,-0.425037
6.386000,-0.376372
6.387000,-0.335819
6.388000,-0.295265
6.389000,-0.266067
6.390000,-0.249521
6.391000,-0.237841
6.392000,-0.228108
6.393000,-0.220646
6.394000,-0.212860
6.395000,-0.203776
6.396000,-0.193070
6.397000,-0.179444
6.398000,-0.175875
6.399000,-0.174577
6.400000,-0.167440
6.401000,-0.159654
6.402000,-0.160951
6.403000,-0.161276
6.404000,-0.166791
6.405000,-0.171982
6.406000,-0.173280
6.407000,-0.173604
6.408000,-0.172306
6.409000,-0.173280
6.410000,-0.169387
6.411000,-0.166791
6.412000,-0.163547
6.413000,-0.157707
6.414000,-0.159005
6.415000,-0.161600
6.416000,-0.162898
6.417000,-0.151867
6.418000,-0.136619
6.419000,-0.135646
6.420000,-0.146676
6.421000,-0.149272
6.422000,-0.153814
6.423000,-0.150570
6.424000,-0.147001
6.425000,-0.139215
6.426000,-0.134997
6.427000,-0.126237
6.428000,-0.116505
6.429000,-0.110016
6.430000,-0.107420
6.431000,-0.107096
6.432000,-0.105798
6.433000,-0.105798
6.434000,-0.105798
6.435000,-0.090226
6.436000,-0.074978
6.437000,-0.075302
6.438000,-0.070111
6.439000,-0.050645
6.440000,-0.043832
6.441000,-0.038966
6.442000,-0.056161
6.443000,-0.094768
6.444000,-0.118127
6.445000,-0.122993
6.446000,-0.120398
6.447000,-0.120398
6.448000,-0.119749
6.449000,-0.118451
6.450000,-0.118127
6.451000,-0.117153
6.452000,-0.099959
6.453000,-0.089577
6.454000,-0.087955
6.455000,-0.085035
6.456000,-0.077573
6.457000,-0.073355
6.458000,-0.070436
6.459000,-0.064271
6.460000,-0.064920
6.461000,-0.066867
6.462000,-0.072382
6.463000,-0.072707
6.464000,-0.070111
6.465000,-0.064920
6.466000,-0.050970
6.467000,-0.039615
6.468000,-0.042535
6.469000,-0.038317
6.470000,-0.036695
6.471000,-0.026962
6.472000,-0.011714
6.473000,-0.032153
6.474000,-0.046103
6.475000,-0.053565
6.476000,-0.051294
6.477000,-0.045779
6.478000,-0.040912
6.479000,-0.040912
6.480000,-0.039939
